#  Theta       sigma       iT11        T20         T21         T22         Kyy for projectile
   0.000       22.60    
  0.1000       22.54    
  0.2000       22.39    
  0.3000       22.13    
  0.4000       21.77    
  0.5000       21.33    
  0.6000       20.80    
  0.7000       20.21    
  0.8000       19.55    
  0.9000       18.85    
   1.000       18.12    
   1.100       17.37    
   1.200       16.62    
   1.300       15.88    
   1.400       15.17    
   1.500       14.51    
   1.600       13.91    
   1.700       13.38    
   1.800       12.94    
   1.900       12.60    
   2.000       12.37    
   2.100       12.25    
   2.200       12.25    
   2.300       12.38    
   2.400       12.64    
   2.500       13.02    
   2.600       13.53    
   2.700       14.16    
   2.800       14.90    
   2.900       15.74    
   3.000       16.67    
   3.100       17.67    
   3.200       18.74    
   3.300       19.86    
   3.400       21.00    
   3.500       22.15    
   3.600       23.29    
   3.700       24.41    
   3.800       25.48    
   3.900       26.49    
   4.000       27.42    
   4.100       28.25    
   4.200       28.98    
   4.300       29.58    
   4.400       30.04    
   4.500       30.37    
   4.600       30.54    
   4.700       30.57    
   4.800       30.44    
   4.900       30.15    
   5.000       29.71    
   5.100       29.12    
   5.200       28.40    
   5.300       27.53    
   5.400       26.55    
   5.500       25.45    
   5.600       24.26    
   5.700       22.98    
   5.800       21.64    
   5.900       20.24    
   6.000       18.80    
   6.100       17.34    
   6.200       15.88    
   6.300       14.42    
   6.400       12.99    
   6.500       11.60    
   6.600       10.26    
   6.700       8.988    
   6.800       7.790    
   6.900       6.678    
   7.000       5.660    
   7.100       4.744    
   7.200       3.933    
   7.300       3.232    
   7.400       2.643    
   7.500       2.167    
   7.600       1.802    
   7.700       1.547    
   7.800       1.398    
   7.900       1.349    
   8.000       1.395    
   8.100       1.529    
   8.200       1.741    
   8.300       2.025    
   8.400       2.369    
   8.500       2.764    
   8.600       3.199    
   8.700       3.665    
   8.800       4.151    
   8.900       4.646    
   9.000       5.140    
   9.100       5.625    
   9.200       6.091    
   9.300       6.530    
   9.400       6.935    
   9.500       7.299    
   9.600       7.616    
   9.700       7.881    
   9.800       8.093    
   9.900       8.246    
   10.00       8.341    
   10.10       8.377    
   10.20       8.355    
   10.30       8.275    
   10.40       8.140    
   10.50       7.954    
   10.60       7.720    
   10.70       7.443    
   10.80       7.127    
   10.90       6.779    
   11.00       6.403    
   11.10       6.007    
   11.20       5.595    
   11.30       5.174    
   11.40       4.749    
   11.50       4.327    
   11.60       3.913    
   11.70       3.512    
   11.80       3.129    
   11.90       2.767    
   12.00       2.430    
   12.10       2.123    
   12.20       1.846    
   12.30       1.603    
   12.40       1.395    
   12.50       1.222    
   12.60       1.085    
   12.70      0.9837    
   12.80      0.9174    
   12.90      0.8847    
   13.00      0.8842    
   13.10      0.9136    
   13.20      0.9706    
   13.30       1.053    
   13.40       1.156    
   13.50       1.279    
   13.60       1.417    
   13.70       1.568    
   13.80       1.727    
   13.90       1.892    
   14.00       2.059    
   14.10       2.225    
   14.20       2.386    
   14.30       2.541    
   14.40       2.686    
   14.50       2.819    
   14.60       2.939    
   14.70       3.042    
   14.80       3.128    
   14.90       3.197    
   15.00       3.245    
   15.10       3.275    
   15.20       3.285    
   15.30       3.275    
   15.40       3.246    
   15.50       3.199    
   15.60       3.135    
   15.70       3.055    
   15.80       2.961    
   15.90       2.854    
   16.00       2.735    
   16.10       2.607    
   16.20       2.472    
   16.30       2.332    
   16.40       2.188    
   16.50       2.042    
   16.60       1.897    
   16.70       1.753    
   16.80       1.613    
   16.90       1.479    
   17.00       1.351    
   17.10       1.231    
   17.20       1.120    
   17.30       1.019    
   17.40      0.9276    
   17.50      0.8476    
   17.60      0.7790    
   17.70      0.7219    
   17.80      0.6762    
   17.90      0.6418    
   18.00      0.6183    
   18.10      0.6054    
   18.20      0.6024    
   18.30      0.6087    
   18.40      0.6234    
   18.50      0.6456    
   18.60      0.6745    
   18.70      0.7091    
   18.80      0.7483    
   18.90      0.7912    
   19.00      0.8366    
   19.10      0.8836    
   19.20      0.9312    
   19.30      0.9784    
   19.40       1.024    
   19.50       1.068    
   19.60       1.109    
   19.70       1.146    
   19.80       1.179    
   19.90       1.207    
   20.00       1.231    
   20.10       1.248    
   20.20       1.260    
   20.30       1.266    
   20.40       1.266    
   20.50       1.260    
   20.60       1.249    
   20.70       1.232    
   20.80       1.210    
   20.90       1.182    
   21.00       1.151    
   21.10       1.115    
   21.20       1.076    
   21.30       1.034    
   21.40      0.9893    
   21.50      0.9430    
   21.60      0.8955    
   21.70      0.8472    
   21.80      0.7988    
   21.90      0.7508    
   22.00      0.7037    
   22.10      0.6580    
   22.20      0.6141    
   22.30      0.5723    
   22.40      0.5331    
   22.50      0.4966    
   22.60      0.4631    
   22.70      0.4328    
   22.80      0.4059    
   22.90      0.3823    
   23.00      0.3622    
   23.10      0.3455    
   23.20      0.3320    
   23.30      0.3219    
   23.40      0.3148    
   23.50      0.3106    
   23.60      0.3091    
   23.70      0.3101    
   23.80      0.3133    
   23.90      0.3185    
   24.00      0.3254    
   24.10      0.3337    
   24.20      0.3431    
   24.30      0.3533    
   24.40      0.3641    
   24.50      0.3751    
   24.60      0.3861    
   24.70      0.3969    
   24.80      0.4072    
   24.90      0.4167    
   25.00      0.4254    
   25.10      0.4330    
   25.20      0.4394    
   25.30      0.4444    
   25.40      0.4479    
   25.50      0.4499    
   25.60      0.4503    
   25.70      0.4492    
   25.80      0.4464    
   25.90      0.4421    
   26.00      0.4362    
   26.10      0.4289    
   26.20      0.4202    
   26.30      0.4103    
   26.40      0.3992    
   26.50      0.3871    
   26.60      0.3742    
   26.70      0.3605    
   26.80      0.3463    
   26.90      0.3317    
   27.00      0.3168    
   27.10      0.3018    
   27.20      0.2869    
   27.30      0.2722    
   27.40      0.2578    
   27.50      0.2438    
   27.60      0.2303    
   27.70      0.2175    
   27.80      0.2055    
   27.90      0.1942    
   28.00      0.1838    
   28.10      0.1743    
   28.20      0.1657    
   28.30      0.1580    
   28.40      0.1513    
   28.50      0.1455    
   28.60      0.1406    
   28.70      0.1366    
   28.80      0.1335    
   28.90      0.1312    
   29.00      0.1295    
   29.10      0.1286    
   29.20      0.1283    
   29.30      0.1286    
   29.40      0.1293    
   29.50      0.1304    
   29.60      0.1319    
   29.70      0.1336    
   29.80      0.1355    
   29.90      0.1375    
   30.00      0.1396    
   30.10      0.1416    
   30.20      0.1435    
   30.30      0.1453    
   30.40      0.1469    
   30.50      0.1482    
   30.60      0.1493    
   30.70      0.1500    
   30.80      0.1504    
   30.90      0.1504    
   31.00      0.1500    
   31.10      0.1493    
   31.20      0.1481    
   31.30      0.1465    
   31.40      0.1445    
   31.50      0.1422    
   31.60      0.1395    
   31.70      0.1365    
   31.80      0.1331    
   31.90      0.1296    
   32.00      0.1257    
   32.10      0.1217    
   32.20      0.1176    
   32.30      0.1133    
   32.40      0.1089    
   32.50      0.1045    
   32.60      0.1002    
   32.70      0.9581E-01
   32.80      0.9153E-01
   32.90      0.8735E-01
   33.00      0.8331E-01
   33.10      0.7942E-01
   33.20      0.7571E-01
   33.30      0.7220E-01
   33.40      0.6890E-01
   33.50      0.6583E-01
   33.60      0.6299E-01
   33.70      0.6040E-01
   33.80      0.5805E-01
   33.90      0.5594E-01
   34.00      0.5407E-01
   34.10      0.5244E-01
   34.20      0.5104E-01
   34.30      0.4985E-01
   34.40      0.4887E-01
   34.50      0.4809E-01
   34.60      0.4748E-01
   34.70      0.4704E-01
   34.80      0.4674E-01
   34.90      0.4657E-01
   35.00      0.4651E-01
   35.10      0.4655E-01
   35.20      0.4666E-01
   35.30      0.4684E-01
   35.40      0.4705E-01
   35.50      0.4728E-01
   35.60      0.4752E-01
   35.70      0.4774E-01
   35.80      0.4795E-01
   35.90      0.4811E-01
   36.00      0.4823E-01
   36.10      0.4828E-01
   36.20      0.4826E-01
   36.30      0.4815E-01
   36.40      0.4797E-01
   36.50      0.4769E-01
   36.60      0.4732E-01
   36.70      0.4685E-01
   36.80      0.4629E-01
   36.90      0.4563E-01
   37.00      0.4489E-01
   37.10      0.4406E-01
   37.20      0.4315E-01
   37.30      0.4217E-01
   37.40      0.4112E-01
   37.50      0.4002E-01
   37.60      0.3887E-01
   37.70      0.3768E-01
   37.80      0.3647E-01
   37.90      0.3523E-01
   38.00      0.3399E-01
   38.10      0.3275E-01
   38.20      0.3152E-01
   38.30      0.3030E-01
   38.40      0.2911E-01
   38.50      0.2794E-01
   38.60      0.2682E-01
   38.70      0.2574E-01
   38.80      0.2471E-01
   38.90      0.2372E-01
   39.00      0.2279E-01
   39.10      0.2192E-01
   39.20      0.2111E-01
   39.30      0.2036E-01
   39.40      0.1967E-01
   39.50      0.1903E-01
   39.60      0.1846E-01
   39.70      0.1794E-01
   39.80      0.1749E-01
   39.90      0.1708E-01
   40.00      0.1673E-01
   40.10      0.1642E-01
   40.20      0.1616E-01
   40.30      0.1594E-01
   40.40      0.1576E-01
   40.50      0.1562E-01
   40.60      0.1550E-01
   40.70      0.1542E-01
   40.80      0.1535E-01
   40.90      0.1530E-01
   41.00      0.1526E-01
   41.10      0.1523E-01
   41.20      0.1521E-01
   41.30      0.1518E-01
   41.40      0.1516E-01
   41.50      0.1512E-01
   41.60      0.1508E-01
   41.70      0.1502E-01
   41.80      0.1495E-01
   41.90      0.1486E-01
   42.00      0.1475E-01
   42.10      0.1462E-01
   42.20      0.1447E-01
   42.30      0.1429E-01
   42.40      0.1410E-01
   42.50      0.1388E-01
   42.60      0.1364E-01
   42.70      0.1339E-01
   42.80      0.1312E-01
   42.90      0.1283E-01
   43.00      0.1253E-01
   43.10      0.1221E-01
   43.20      0.1189E-01
   43.30      0.1155E-01
   43.40      0.1122E-01
   43.50      0.1088E-01
   43.60      0.1053E-01
   43.70      0.1019E-01
   43.80      0.9853E-02
   43.90      0.9518E-02
   44.00      0.9189E-02
   44.10      0.8868E-02
   44.20      0.8555E-02
   44.30      0.8252E-02
   44.40      0.7959E-02
   44.50      0.7679E-02
   44.60      0.7411E-02
   44.70      0.7156E-02
   44.80      0.6914E-02
   44.90      0.6687E-02
   45.00      0.6473E-02
   45.10      0.6274E-02
   45.20      0.6090E-02
   45.30      0.5919E-02
   45.40      0.5763E-02
   45.50      0.5620E-02
   45.60      0.5491E-02
   45.70      0.5375E-02
   45.80      0.5271E-02
   45.90      0.5179E-02
   46.00      0.5097E-02
   46.10      0.5026E-02
   46.20      0.4963E-02
   46.30      0.4909E-02
   46.40      0.4862E-02
   46.50      0.4820E-02
   46.60      0.4783E-02
   46.70      0.4750E-02
   46.80      0.4719E-02
   46.90      0.4690E-02
   47.00      0.4661E-02
   47.10      0.4632E-02
   47.20      0.4601E-02
   47.30      0.4568E-02
   47.40      0.4532E-02
   47.50      0.4492E-02
   47.60      0.4449E-02
   47.70      0.4401E-02
   47.80      0.4349E-02
   47.90      0.4293E-02
   48.00      0.4232E-02
   48.10      0.4166E-02
   48.20      0.4096E-02
   48.30      0.4023E-02
   48.40      0.3945E-02
   48.50      0.3865E-02
   48.60      0.3781E-02
   48.70      0.3695E-02
   48.80      0.3607E-02
   48.90      0.3518E-02
   49.00      0.3427E-02
   49.10      0.3335E-02
   49.20      0.3244E-02
   49.30      0.3152E-02
   49.40      0.3060E-02
   49.50      0.2969E-02
   49.60      0.2879E-02
   49.70      0.2791E-02
   49.80      0.2704E-02
   49.90      0.2619E-02
   50.00      0.2535E-02
   50.10      0.2455E-02
   50.20      0.2376E-02
   50.30      0.2300E-02
   50.40      0.2228E-02
   50.50      0.2158E-02
   50.60      0.2091E-02
   50.70      0.2028E-02
   50.80      0.1969E-02
   50.90      0.1912E-02
   51.00      0.1860E-02
   51.10      0.1811E-02
   51.20      0.1766E-02
   51.30      0.1724E-02
   51.40      0.1686E-02
   51.50      0.1651E-02
   51.60      0.1619E-02
   51.70      0.1590E-02
   51.80      0.1564E-02
   51.90      0.1540E-02
   52.00      0.1519E-02
   52.10      0.1500E-02
   52.20      0.1482E-02
   52.30      0.1465E-02
   52.40      0.1450E-02
   52.50      0.1435E-02
   52.60      0.1421E-02
   52.70      0.1407E-02
   52.80      0.1393E-02
   52.90      0.1379E-02
   53.00      0.1364E-02
   53.10      0.1349E-02
   53.20      0.1333E-02
   53.30      0.1316E-02
   53.40      0.1299E-02
   53.50      0.1281E-02
   53.60      0.1262E-02
   53.70      0.1243E-02
   53.80      0.1222E-02
   53.90      0.1201E-02
   54.00      0.1180E-02
   54.10      0.1158E-02
   54.20      0.1136E-02
   54.30      0.1113E-02
   54.40      0.1089E-02
   54.50      0.1066E-02
   54.60      0.1042E-02
   54.70      0.1018E-02
   54.80      0.9940E-03
   54.90      0.9698E-03
   55.00      0.9455E-03
   55.10      0.9211E-03
   55.20      0.8968E-03
   55.30      0.8725E-03
   55.40      0.8484E-03
   55.50      0.8244E-03
   55.60      0.8007E-03
   55.70      0.7774E-03
   55.80      0.7545E-03
   55.90      0.7321E-03
   56.00      0.7102E-03
   56.10      0.6890E-03
   56.20      0.6685E-03
   56.30      0.6488E-03
   56.40      0.6299E-03
   56.50      0.6120E-03
   56.60      0.5950E-03
   56.70      0.5789E-03
   56.80      0.5639E-03
   56.90      0.5498E-03
   57.00      0.5367E-03
   57.10      0.5246E-03
   57.20      0.5133E-03
   57.30      0.5029E-03
   57.40      0.4933E-03
   57.50      0.4844E-03
   57.60      0.4761E-03
   57.70      0.4685E-03
   57.80      0.4612E-03
   57.90      0.4544E-03
   58.00      0.4479E-03
   58.10      0.4417E-03
   58.20      0.4356E-03
   58.30      0.4296E-03
   58.40      0.4237E-03
   58.50      0.4179E-03
   58.60      0.4121E-03
   58.70      0.4063E-03
   58.80      0.4004E-03
   58.90      0.3945E-03
   59.00      0.3886E-03
   59.10      0.3827E-03
   59.20      0.3768E-03
   59.30      0.3708E-03
   59.40      0.3649E-03
   59.50      0.3589E-03
   59.60      0.3530E-03
   59.70      0.3470E-03
   59.80      0.3410E-03
   59.90      0.3350E-03
   60.00      0.3290E-03
   60.10      0.3229E-03
   60.20      0.3167E-03
   60.30      0.3105E-03
   60.40      0.3042E-03
   60.50      0.2978E-03
   60.60      0.2913E-03
   60.70      0.2848E-03
   60.80      0.2782E-03
   60.90      0.2715E-03
   61.00      0.2648E-03
   61.10      0.2580E-03
   61.20      0.2513E-03
   61.30      0.2446E-03
   61.40      0.2379E-03
   61.50      0.2314E-03
   61.60      0.2249E-03
   61.70      0.2186E-03
   61.80      0.2125E-03
   61.90      0.2065E-03
   62.00      0.2008E-03
   62.10      0.1953E-03
   62.20      0.1901E-03
   62.30      0.1851E-03
   62.40      0.1804E-03
   62.50      0.1760E-03
   62.60      0.1719E-03
   62.70      0.1679E-03
   62.80      0.1643E-03
   62.90      0.1608E-03
   63.00      0.1575E-03
   63.10      0.1544E-03
   63.20      0.1514E-03
   63.30      0.1486E-03
   63.40      0.1459E-03
   63.50      0.1432E-03
   63.60      0.1406E-03
   63.70      0.1381E-03
   63.80      0.1356E-03
   63.90      0.1332E-03
   64.00      0.1308E-03
   64.10      0.1285E-03
   64.20      0.1261E-03
   64.30      0.1239E-03
   64.40      0.1217E-03
   64.50      0.1196E-03
   64.60      0.1175E-03
   64.70      0.1155E-03
   64.80      0.1135E-03
   64.90      0.1117E-03
   65.00      0.1099E-03
   65.10      0.1081E-03
   65.20      0.1064E-03
   65.30      0.1048E-03
   65.40      0.1031E-03
   65.50      0.1015E-03
   65.60      0.9988E-04
   65.70      0.9825E-04
   65.80      0.9660E-04
   65.90      0.9492E-04
   66.00      0.9321E-04
   66.10      0.9146E-04
   66.20      0.8967E-04
   66.30      0.8785E-04
   66.40      0.8599E-04
   66.50      0.8409E-04
   66.60      0.8218E-04
   66.70      0.8025E-04
   66.80      0.7832E-04
   66.90      0.7639E-04
   67.00      0.7447E-04
   67.10      0.7258E-04
   67.20      0.7072E-04
   67.30      0.6891E-04
   67.40      0.6715E-04
   67.50      0.6545E-04
   67.60      0.6382E-04
   67.70      0.6226E-04
   67.80      0.6077E-04
   67.90      0.5935E-04
   68.00      0.5801E-04
   68.10      0.5673E-04
   68.20      0.5551E-04
   68.30      0.5435E-04
   68.40      0.5323E-04
   68.50      0.5215E-04
   68.60      0.5110E-04
   68.70      0.5007E-04
   68.80      0.4906E-04
   68.90      0.4805E-04
   69.00      0.4704E-04
   69.10      0.4604E-04
   69.20      0.4505E-04
   69.30      0.4406E-04
   69.40      0.4307E-04
   69.50      0.4210E-04
   69.60      0.4116E-04
   69.70      0.4024E-04
   69.80      0.3935E-04
   69.90      0.3850E-04
   70.00      0.3769E-04
   70.10      0.3692E-04
   70.20      0.3620E-04
   70.30      0.3553E-04
   70.40      0.3490E-04
   70.50      0.3431E-04
   70.60      0.3375E-04
   70.70      0.3322E-04
   70.80      0.3271E-04
   70.90      0.3221E-04
   71.00      0.3173E-04
   71.10      0.3125E-04
   71.20      0.3077E-04
   71.30      0.3028E-04
   71.40      0.2978E-04
   71.50      0.2927E-04
   71.60      0.2875E-04
   71.70      0.2822E-04
   71.80      0.2768E-04
   71.90      0.2712E-04
   72.00      0.2656E-04
   72.10      0.2599E-04
   72.20      0.2542E-04
   72.30      0.2485E-04
   72.40      0.2428E-04
   72.50      0.2372E-04
   72.60      0.2317E-04
   72.70      0.2263E-04
   72.80      0.2211E-04
   72.90      0.2161E-04
   73.00      0.2113E-04
   73.10      0.2068E-04
   73.20      0.2025E-04
   73.30      0.1985E-04
   73.40      0.1947E-04
   73.50      0.1911E-04
   73.60      0.1877E-04
   73.70      0.1844E-04
   73.80      0.1812E-04
   73.90      0.1780E-04
   74.00      0.1748E-04
   74.10      0.1716E-04
   74.20      0.1683E-04
   74.30      0.1649E-04
   74.40      0.1614E-04
   74.50      0.1577E-04
   74.60      0.1540E-04
   74.70      0.1502E-04
   74.80      0.1464E-04
   74.90      0.1426E-04
   75.00      0.1388E-04
   75.10      0.1351E-04
   75.20      0.1316E-04
   75.30      0.1282E-04
   75.40      0.1250E-04
   75.50      0.1221E-04
   75.60      0.1193E-04
   75.70      0.1168E-04
   75.80      0.1145E-04
   75.90      0.1123E-04
   76.00      0.1104E-04
   76.10      0.1085E-04
   76.20      0.1068E-04
   76.30      0.1051E-04
   76.40      0.1034E-04
   76.50      0.1018E-04
   76.60      0.1002E-04
   76.70      0.9853E-05
   76.80      0.9685E-05
   76.90      0.9515E-05
   77.00      0.9341E-05
   77.10      0.9164E-05
   77.20      0.8984E-05
   77.30      0.8801E-05
   77.40      0.8617E-05
   77.50      0.8431E-05
   77.60      0.8246E-05
   77.70      0.8061E-05
   77.80      0.7877E-05
   77.90      0.7698E-05
   78.00      0.7522E-05
   78.10      0.7354E-05
   78.20      0.7193E-05
   78.30      0.7041E-05
   78.40      0.6900E-05
   78.50      0.6770E-05
   78.60      0.6652E-05
   78.70      0.6545E-05
   78.80      0.6449E-05
   78.90      0.6362E-05
   79.00      0.6282E-05
   79.10      0.6207E-05
   79.20      0.6133E-05
   79.30      0.6059E-05
   79.40      0.5980E-05
   79.50      0.5895E-05
