#  Theta       sigma       iT11        T20         T21         T22         Kyy for projectile
   0.000      0.1215E-02
  0.1000      0.1219E-02
  0.2000      0.1234E-02
  0.3000      0.1272E-02
  0.4000      0.1349E-02
  0.5000      0.1488E-02
  0.6000      0.1713E-02
  0.7000      0.2049E-02
  0.8000      0.2519E-02
  0.9000      0.3142E-02
   1.000      0.3929E-02
   1.100      0.4884E-02
   1.200      0.6004E-02
   1.300      0.7272E-02
   1.400      0.8664E-02
   1.500      0.1015E-01
   1.600      0.1168E-01
   1.700      0.1323E-01
   1.800      0.1473E-01
   1.900      0.1615E-01
   2.000      0.1744E-01
   2.100      0.1855E-01
   2.200      0.1945E-01
   2.300      0.2013E-01
   2.400      0.2055E-01
   2.500      0.2072E-01
   2.600      0.2064E-01
   2.700      0.2032E-01
   2.800      0.1979E-01
   2.900      0.1906E-01
   3.000      0.1818E-01
   3.100      0.1717E-01
   3.200      0.1607E-01
   3.300      0.1492E-01
   3.400      0.1374E-01
   3.500      0.1256E-01
   3.600      0.1142E-01
   3.700      0.1032E-01
   3.800      0.9274E-02
   3.900      0.8301E-02
   4.000      0.7399E-02
   4.100      0.6570E-02
   4.200      0.5811E-02
   4.300      0.5119E-02
   4.400      0.4489E-02
   4.500      0.3915E-02
   4.600      0.3391E-02
   4.700      0.2914E-02
   4.800      0.2480E-02
   4.900      0.2085E-02
   5.000      0.1730E-02
   5.100      0.1411E-02
   5.200      0.1129E-02
   5.300      0.8833E-03
   5.400      0.6733E-03
   5.500      0.4980E-03
   5.600      0.3561E-03
   5.700      0.2456E-03
   5.800      0.1639E-03
   5.900      0.1078E-03
   6.000      0.7398E-04
   6.100      0.5865E-04
   6.200      0.5814E-04
   6.300      0.6894E-04
   6.400      0.8789E-04
   6.500      0.1123E-03
   6.600      0.1400E-03
   6.700      0.1696E-03
   6.800      0.1998E-03
   6.900      0.2303E-03
   7.000      0.2608E-03
   7.100      0.2912E-03
   7.200      0.3218E-03
   7.300      0.3527E-03
   7.400      0.3837E-03
   7.500      0.4147E-03
   7.600      0.4453E-03
   7.700      0.4749E-03
   7.800      0.5027E-03
   7.900      0.5277E-03
   8.000      0.5492E-03
   8.100      0.5662E-03
   8.200      0.5781E-03
   8.300      0.5843E-03
   8.400      0.5847E-03
   8.500      0.5792E-03
   8.600      0.5680E-03
   8.700      0.5518E-03
   8.800      0.5311E-03
   8.900      0.5067E-03
   9.000      0.4794E-03
   9.100      0.4501E-03
   9.200      0.4196E-03
   9.300      0.3885E-03
   9.400      0.3573E-03
   9.500      0.3265E-03
   9.600      0.2965E-03
   9.700      0.2673E-03
   9.800      0.2392E-03
   9.900      0.2122E-03
   10.00      0.1866E-03
   10.10      0.1624E-03
   10.20      0.1398E-03
   10.30      0.1189E-03
   10.40      0.1001E-03
   10.50      0.8362E-04
   10.60      0.6962E-04
   10.70      0.5833E-04
   10.80      0.4986E-04
   10.90      0.4425E-04
   11.00      0.4142E-04
   11.10      0.4117E-04
   11.20      0.4320E-04
   11.30      0.4711E-04
   11.40      0.5244E-04
   11.50      0.5868E-04
   11.60      0.6533E-04
   11.70      0.7194E-04
   11.80      0.7810E-04
   11.90      0.8351E-04
   12.00      0.8798E-04
   12.10      0.9143E-04
   12.20      0.9388E-04
   12.30      0.9546E-04
   12.40      0.9635E-04
   12.50      0.9679E-04
   12.60      0.9702E-04
   12.70      0.9727E-04
   12.80      0.9773E-04
   12.90      0.9852E-04
   13.00      0.9970E-04
   13.10      0.1012E-03
   13.20      0.1031E-03
   13.30      0.1051E-03
   13.40      0.1070E-03
   13.50      0.1088E-03
   13.60      0.1101E-03
   13.70      0.1109E-03
   13.80      0.1110E-03
   13.90      0.1102E-03
   14.00      0.1087E-03
   14.10      0.1064E-03
   14.20      0.1033E-03
   14.30      0.9958E-04
   14.40      0.9533E-04
   14.50      0.9067E-04
   14.60      0.8572E-04
   14.70      0.8059E-04
   14.80      0.7538E-04
   14.90      0.7016E-04
   15.00      0.6499E-04
   15.10      0.5991E-04
   15.20      0.5497E-04
   15.30      0.5019E-04
   15.40      0.4562E-04
   15.50      0.4131E-04
   15.60      0.3732E-04
   15.70      0.3371E-04
   15.80      0.3057E-04
   15.90      0.2796E-04
   16.00      0.2596E-04
   16.10      0.2461E-04
   16.20      0.2393E-04
   16.30      0.2393E-04
   16.40      0.2455E-04
   16.50      0.2573E-04
   16.60      0.2735E-04
   16.70      0.2928E-04
   16.80      0.3137E-04
   16.90      0.3345E-04
   17.00      0.3538E-04
   17.10      0.3702E-04
   17.20      0.3826E-04
   17.30      0.3903E-04
   17.40      0.3931E-04
   17.50      0.3911E-04
   17.60      0.3846E-04
   17.70      0.3746E-04
   17.80      0.3620E-04
   17.90      0.3479E-04
   18.00      0.3336E-04
   18.10      0.3201E-04
   18.20      0.3082E-04
   18.30      0.2987E-04
   18.40      0.2917E-04
   18.50      0.2874E-04
   18.60      0.2856E-04
   18.70      0.2858E-04
   18.80      0.2873E-04
   18.90      0.2896E-04
   19.00      0.2919E-04
   19.10      0.2936E-04
   19.20      0.2941E-04
   19.30      0.2932E-04
   19.40      0.2906E-04
   19.50      0.2862E-04
   19.60      0.2803E-04
   19.70      0.2728E-04
   19.80      0.2642E-04
   19.90      0.2548E-04
   20.00      0.2446E-04
   20.10      0.2341E-04
   20.20      0.2233E-04
   20.30      0.2123E-04
   20.40      0.2013E-04
   20.50      0.1901E-04
   20.60      0.1789E-04
   20.70      0.1677E-04
   20.80      0.1566E-04
   20.90      0.1458E-04
   21.00      0.1356E-04
   21.10      0.1261E-04
   21.20      0.1178E-04
   21.30      0.1110E-04
   21.40      0.1061E-04
   21.50      0.1031E-04
   21.60      0.1024E-04
   21.70      0.1039E-04
   21.80      0.1074E-04
   21.90      0.1126E-04
   22.00      0.1191E-04
   22.10      0.1264E-04
   22.20      0.1339E-04
   22.30      0.1409E-04
   22.40      0.1468E-04
   22.50      0.1512E-04
   22.60      0.1536E-04
   22.70      0.1539E-04
   22.80      0.1520E-04
   22.90      0.1481E-04
   23.00      0.1423E-04
   23.10      0.1352E-04
   23.20      0.1272E-04
   23.30      0.1189E-04
   23.40      0.1107E-04
   23.50      0.1031E-04
   23.60      0.9655E-05
   23.70      0.9118E-05
   23.80      0.8716E-05
   23.90      0.8445E-05
   24.00      0.8294E-05
   24.10      0.8241E-05
   24.20      0.8259E-05
   24.30      0.8317E-05
   24.40      0.8388E-05
   24.50      0.8446E-05
   24.60      0.8474E-05
   24.70      0.8459E-05
   24.80      0.8396E-05
   24.90      0.8287E-05
   25.00      0.8140E-05
   25.10      0.7962E-05
   25.20      0.7765E-05
   25.30      0.7559E-05
   25.40      0.7349E-05
   25.50      0.7140E-05
   25.60      0.6931E-05
   25.70      0.6719E-05
   25.80      0.6499E-05
   25.90      0.6264E-05
   26.00      0.6009E-05
   26.10      0.5732E-05
   26.20      0.5436E-05
   26.30      0.5125E-05
   26.40      0.4811E-05
   26.50      0.4509E-05
   26.60      0.4237E-05
   26.70      0.4012E-05
   26.80      0.3853E-05
   26.90      0.3772E-05
   27.00      0.3779E-05
   27.10      0.3876E-05
   27.20      0.4056E-05
   27.30      0.4305E-05
   27.40      0.4605E-05
   27.50      0.4930E-05
   27.60      0.5251E-05
   27.70      0.5541E-05
   27.80      0.5771E-05
   27.90      0.5922E-05
   28.00      0.5977E-05
   28.10      0.5929E-05
   28.20      0.5780E-05
   28.30      0.5538E-05
   28.40      0.5221E-05
   28.50      0.4850E-05
   28.60      0.4450E-05
   28.70      0.4046E-05
   28.80      0.3664E-05
   28.90      0.3321E-05
   29.00      0.3034E-05
   29.10      0.2811E-05
   29.20      0.2654E-05
   29.30      0.2557E-05
   29.40      0.2513E-05
   29.50      0.2509E-05
   29.60      0.2529E-05
   29.70      0.2560E-05
   29.80      0.2590E-05
   29.90      0.2608E-05
   30.00      0.2608E-05
   30.10      0.2589E-05
   30.20      0.2553E-05
   30.30      0.2502E-05
   30.40      0.2445E-05
   30.50      0.2386E-05
   30.60      0.2333E-05
   30.70      0.2289E-05
   30.80      0.2256E-05
   30.90      0.2233E-05
   31.00      0.2217E-05
   31.10      0.2202E-05
   31.20      0.2182E-05
   31.30      0.2150E-05
   31.40      0.2101E-05
   31.50      0.2032E-05
   31.60      0.1942E-05
   31.70      0.1834E-05
   31.80      0.1714E-05
   31.90      0.1591E-05
   32.00      0.1476E-05
   32.10      0.1380E-05
   32.20      0.1313E-05
   32.30      0.1283E-05
   32.40      0.1297E-05
   32.50      0.1356E-05
   32.60      0.1456E-05
   32.70      0.1590E-05
   32.80      0.1748E-05
   32.90      0.1915E-05
   33.00      0.2078E-05
   33.10      0.2220E-05
   33.20      0.2329E-05
   33.30      0.2394E-05
   33.40      0.2408E-05
   33.50      0.2369E-05
   33.60      0.2280E-05
   33.70      0.2146E-05
   33.80      0.1979E-05
   33.90      0.1791E-05
   34.00      0.1595E-05
   34.10      0.1405E-05
   34.20      0.1232E-05
   34.30      0.1086E-05
   34.40      0.9723E-06
   34.50      0.8928E-06
   34.60      0.8460E-06
   34.70      0.8274E-06
   34.80      0.8301E-06
   34.90      0.8460E-06
   35.00      0.8670E-06
   35.10      0.8856E-06
   35.20      0.8962E-06
   35.30      0.8954E-06
   35.40      0.8821E-06
   35.50      0.8580E-06
   35.60      0.8261E-06
   35.70      0.7913E-06
   35.80      0.7586E-06
   35.90      0.7328E-06
   36.00      0.7173E-06
   36.10      0.7141E-06
   36.20      0.7232E-06
   36.30      0.7424E-06
   36.40      0.7678E-06
   36.50      0.7943E-06
   36.60      0.8163E-06
   36.70      0.8285E-06
   36.80      0.8267E-06
   36.90      0.8082E-06
   37.00      0.7727E-06
   37.10      0.7222E-06
   37.20      0.6608E-06
   37.30      0.5944E-06
   37.40      0.5302E-06
   37.50      0.4755E-06
   37.60      0.4372E-06
   37.70      0.4207E-06
   37.80      0.4293E-06
   37.90      0.4638E-06
   38.00      0.5221E-06
   38.10      0.5998E-06
   38.20      0.6899E-06
   38.30      0.7844E-06
   38.40      0.8742E-06
   38.50      0.9508E-06
   38.60      0.1007E-05
   38.70      0.1037E-05
   38.80      0.1037E-05
   38.90      0.1009E-05
   39.00      0.9541E-06
   39.10      0.8774E-06
   39.20      0.7856E-06
   39.30      0.6867E-06
   39.40      0.5884E-06
   39.50      0.4982E-06
   39.60      0.4219E-06
   39.70      0.3636E-06
   39.80      0.3250E-06
   39.90      0.3056E-06
   40.00      0.3029E-06
   40.10      0.3126E-06
   40.20      0.3298E-06
   40.30      0.3490E-06
   40.40      0.3654E-06
   40.50      0.3751E-06
   40.60      0.3756E-06
   40.70      0.3662E-06
   40.80      0.3480E-06
   40.90      0.3234E-06
   41.00      0.2960E-06
   41.10      0.2696E-06
   41.20      0.2484E-06
   41.30      0.2354E-06
   41.40      0.2329E-06
   41.50      0.2415E-06
   41.60      0.2603E-06
   41.70      0.2869E-06
   41.80      0.3178E-06
   41.90      0.3485E-06
   42.00      0.3748E-06
   42.10      0.3925E-06
   42.20      0.3987E-06
   42.30      0.3916E-06
   42.40      0.3712E-06
   42.50      0.3393E-06
   42.60      0.2990E-06
   42.70      0.2548E-06
   42.80      0.2117E-06
   42.90      0.1748E-06
   43.00      0.1489E-06
   43.10      0.1373E-06
   43.20      0.1421E-06
   43.30      0.1635E-06
   43.40      0.1997E-06
   43.50      0.2476E-06
   43.60      0.3023E-06
   43.70      0.3585E-06
   43.80      0.4105E-06
   43.90      0.4529E-06
   44.00      0.4817E-06
   44.10      0.4938E-06
   44.20      0.4883E-06
   44.30      0.4658E-06
   44.40      0.4287E-06
   44.50      0.3809E-06
   44.60      0.3270E-06
   44.70      0.2721E-06
   44.80      0.2212E-06
   44.90      0.1783E-06
   45.00      0.1464E-06
   45.10      0.1271E-06
   45.20      0.1204E-06
   45.30      0.1247E-06
   45.40      0.1375E-06
   45.50      0.1551E-06
   45.60      0.1739E-06
   45.70      0.1901E-06
   45.80      0.2009E-06
   45.90      0.2042E-06
   46.00      0.1992E-06
   46.10      0.1864E-06
   46.20      0.1675E-06
   46.30      0.1452E-06
   46.40      0.1225E-06
   46.50      0.1027E-06
   46.60      0.8870E-07
   46.70      0.8272E-07
   46.80      0.8585E-07
   46.90      0.9803E-07
   47.00      0.1180E-06
   47.10      0.1434E-06
   47.20      0.1711E-06
   47.30      0.1977E-06
   47.40      0.2198E-06
   47.50      0.2344E-06
   47.60      0.2394E-06
   47.70      0.2339E-06
   47.80      0.2183E-06
   47.90      0.1941E-06
   48.00      0.1640E-06
   48.10      0.1315E-06
   48.20      0.1003E-06
   48.30      0.7402E-07
   48.40      0.5589E-07
   48.50      0.4814E-07
   48.60      0.5182E-07
   48.70      0.6670E-07
   48.80      0.9126E-07
   48.90      0.1228E-06
   49.00      0.1580E-06
   49.10      0.1930E-06
   49.20      0.2239E-06
   49.30      0.2474E-06
   49.40      0.2611E-06
   49.50      0.2635E-06
   49.60      0.2546E-06
   49.70      0.2354E-06
   49.80      0.2081E-06
   49.90      0.1759E-06
   50.00      0.1420E-06
   50.10      0.1100E-06
   50.20      0.8302E-07
   50.30      0.6336E-07
   50.40      0.5243E-07
   50.50      0.5051E-07
   50.60      0.5678E-07
   50.70      0.6948E-07
   50.80      0.8611E-07
   50.90      0.1038E-06
   51.00      0.1198E-06
   51.10      0.1316E-06
   51.20      0.1373E-06
   51.30      0.1362E-06
   51.40      0.1281E-06
   51.50      0.1143E-06
   51.60      0.9657E-07
   51.70      0.7726E-07
   51.80      0.5906E-07
   51.90      0.4450E-07
   52.00      0.3567E-07
   52.10      0.3393E-07
   52.20      0.3978E-07
   52.30      0.5270E-07
   52.40      0.7130E-07
   52.50      0.9342E-07
   52.60      0.1164E-06
   52.70      0.1376E-06
   52.80      0.1543E-06
   52.90      0.1644E-06
   53.00      0.1666E-06
   53.10      0.1607E-06
   53.20      0.1470E-06
   53.30      0.1273E-06
   53.40      0.1037E-06
   53.50      0.7891E-07
   53.60      0.5588E-07
   53.70      0.3724E-07
   53.80      0.2513E-07
   53.90      0.2091E-07
   54.00      0.2503E-07
   54.10      0.3694E-07
   54.20      0.5519E-07
   54.30      0.7760E-07
   54.40      0.1015E-06
   54.50      0.1241E-06
   54.60      0.1427E-06
   54.70      0.1553E-06
   54.80      0.1604E-06
   54.90      0.1575E-06
   55.00      0.1470E-06
   55.10      0.1302E-06
   55.20      0.1090E-06
   55.30      0.8599E-07
   55.40      0.6367E-07
   55.50      0.4448E-07
   55.60      0.3040E-07
   55.70      0.2273E-07
   55.80      0.2196E-07
   55.90      0.2772E-07
   56.00      0.3885E-07
   56.10      0.5355E-07
   56.20      0.6965E-07
   56.30      0.8485E-07
   56.40      0.9705E-07
   56.50      0.1046E-06
   56.60      0.1064E-06
   56.70      0.1023E-06
   56.80      0.9272E-07
   56.90      0.7903E-07
   57.00      0.6297E-07
   57.10      0.4668E-07
   57.20      0.3231E-07
   57.30      0.2180E-07
   57.40      0.1660E-07
   57.50      0.1751E-07
   57.60      0.2455E-07
   57.70      0.3700E-07
   57.80      0.5344E-07
   57.90      0.7195E-07
   58.00      0.9032E-07
   58.10      0.1064E-06
   58.20      0.1182E-06
   58.30      0.1243E-06
   58.40      0.1240E-06
   58.50      0.1172E-06
   58.60      0.1049E-06
   58.70      0.8829E-07
   58.80      0.6945E-07
   58.90      0.5056E-07
   59.00      0.3378E-07
   59.10      0.2105E-07
   59.20      0.1379E-07
   59.30      0.1274E-07
   59.40      0.1790E-07
   59.50      0.2855E-07
   59.60      0.4327E-07
   59.70      0.6022E-07
   59.80      0.7728E-07
   59.90      0.9234E-07
   60.00      0.1036E-06
   60.10      0.1096E-06
   60.20      0.1098E-06
   60.30      0.1040E-06
   60.40      0.9306E-07
   60.50      0.7827E-07
   60.60      0.6138E-07
   60.70      0.4439E-07
   60.80      0.2929E-07
   60.90      0.1777E-07
   61.00      0.1110E-07
   61.10      0.9897E-08
   61.20      0.1412E-07
   61.30      0.2307E-07
   61.40      0.3545E-07
   61.50      0.4959E-07
   61.60      0.6362E-07
   61.70      0.7571E-07
   61.80      0.8431E-07
   61.90      0.8834E-07
   62.00      0.8728E-07
   62.10      0.8130E-07
   62.20      0.7117E-07
   62.30      0.5820E-07
   62.40      0.4404E-07
   62.50      0.3052E-07
   62.60      0.1935E-07
   62.70      0.1198E-07
   62.80      0.9381E-08
   62.90      0.1193E-07
   63.00      0.1936E-07
   63.10      0.3081E-07
   63.20      0.4492E-07
   63.30      0.6001E-07
   63.40      0.7425E-07
   63.50      0.8594E-07
   63.60      0.9367E-07
   63.70      0.9652E-07
   63.80      0.9415E-07
   63.90      0.8685E-07
   64.00      0.7550E-07
   64.10      0.6147E-07
   64.20      0.4642E-07
   64.30      0.3212E-07
   64.40      0.2027E-07
   64.50      0.1220E-07
   64.60      0.8804E-08
   64.70      0.1040E-07
   64.80      0.1668E-07
   64.90      0.2678E-07
   65.00      0.3939E-07
   65.10      0.5287E-07
   65.20      0.6554E-07
   65.30      0.7579E-07
   65.40      0.8235E-07
   65.50      0.8440E-07
   65.60      0.8168E-07
   65.70      0.7453E-07
   65.80      0.6380E-07
   65.90      0.5082E-07
   66.00      0.3713E-07
   66.10      0.2438E-07
   66.20      0.1408E-07
   66.30      0.7428E-08
   66.40      0.5173E-08
   66.50      0.7513E-08
   66.60      0.1409E-07
   66.70      0.2401E-07
   66.80      0.3601E-07
   66.90      0.4857E-07
   67.00      0.6011E-07
   67.10      0.6920E-07
   67.20      0.7473E-07
   67.30      0.7602E-07
   67.40      0.7294E-07
   67.50      0.6591E-07
   67.60      0.5581E-07
   67.70      0.4391E-07
   67.80      0.3170E-07
   67.90      0.2069E-07
   68.00      0.1226E-07
   68.10      0.7424E-08
   68.20      0.6785E-08
   68.30      0.1041E-07
   68.40      0.1784E-07
   68.50      0.2816E-07
   68.60      0.4010E-07
   68.70      0.5217E-07
   68.80      0.6291E-07
   68.90      0.7100E-07
   69.00      0.7545E-07
   69.10      0.7574E-07
   69.20      0.7183E-07
   69.30      0.6421E-07
   69.40      0.5381E-07
   69.50      0.4190E-07
   69.60      0.2992E-07
   69.70      0.1930E-07
   69.80      0.1131E-07
   69.90      0.6878E-08
   70.00      0.6496E-08
   70.10      0.1015E-07
   70.20      0.1734E-07
   70.30      0.2712E-07
   70.40      0.3825E-07
   70.50      0.4934E-07
   70.60      0.5897E-07
   70.70      0.6597E-07
   70.80      0.6944E-07
   70.90      0.6897E-07
   71.00      0.6460E-07
   71.10      0.5686E-07
   71.20      0.4669E-07
   71.30      0.3534E-07
   71.40      0.2417E-07
   71.50      0.1453E-07
   71.60      0.7570E-08
   71.70      0.4109E-08
   71.80      0.4534E-08
   71.90      0.8756E-08
   72.00      0.1622E-07
   72.10      0.2600E-07
   72.20      0.3685E-07
   72.30      0.4746E-07
   72.40      0.5650E-07
   72.50      0.6290E-07
   72.60      0.6587E-07
   72.70      0.6508E-07
   72.80      0.6064E-07
   72.90      0.5313E-07
   73.00      0.4347E-07
   73.10      0.3287E-07
   73.20      0.2262E-07
   73.30      0.1396E-07
   73.40      0.7953E-08
   73.50      0.5288E-08
   73.60      0.6261E-08
   73.70      0.1071E-07
   73.80      0.1805E-07
   73.90      0.2734E-07
   74.00      0.3741E-07
   74.10      0.4698E-07
   74.20      0.5487E-07
   74.30      0.6009E-07
   74.40      0.6199E-07
   74.50      0.6034E-07
   74.60      0.5534E-07
   74.70      0.4761E-07
   74.80      0.3809E-07
   74.90      0.2796E-07
   75.00      0.1846E-07
   75.10      0.1073E-07
   75.20      0.5729E-08
   75.30      0.4042E-08
   75.40      0.5863E-08
   75.50      0.1095E-07
   75.60      0.1867E-07
   75.70      0.2805E-07
   75.80      0.3795E-07
   75.90      0.4713E-07
   76.00      0.5448E-07
   76.10      0.5909E-07
   76.20      0.6040E-07
   76.30      0.5827E-07
   76.40      0.5294E-07
   76.50      0.4509E-07
   76.60      0.3566E-07
   76.70      0.2580E-07
   76.80      0.1670E-07
   76.90      0.9466E-08
   77.00      0.4943E-08
   77.10      0.3659E-08
   77.20      0.5741E-08
   77.30      0.1090E-07
   77.40      0.1849E-07
   77.50      0.2754E-07
   77.60      0.3694E-07
   77.70      0.4553E-07
   77.80      0.5226E-07
   77.90      0.5631E-07
   78.00      0.5720E-07
   78.10      0.5483E-07
   78.20      0.4952E-07
   78.30      0.4192E-07
   78.40      0.3298E-07
   78.50      0.2379E-07
   78.60      0.1546E-07
   78.70      0.9012E-08
   78.80      0.5193E-08
   78.90      0.4444E-08
   79.00      0.6816E-08
   79.10      0.1197E-07
   79.20      0.1924E-07
   79.30      0.2769E-07
   79.40      0.3624E-07
   79.50      0.4381E-07
