#  Theta       sigma       iT11        T20         T21         T22         Kyy for projectile
   0.000      0.4166    
  0.1000      0.4205    
  0.2000      0.4346    
  0.3000      0.4646    
  0.4000      0.5202    
  0.5000      0.6132    
  0.6000      0.7570    
  0.7000      0.9650    
  0.8000       1.250    
  0.9000       1.621    
   1.000       2.084    
   1.100       2.642    
   1.200       3.290    
   1.300       4.020    
   1.400       4.817    
   1.500       5.663    
   1.600       6.535    
   1.700       7.408    
   1.800       8.254    
   1.900       9.048    
   2.000       9.763    
   2.100       10.38    
   2.200       10.87    
   2.300       11.24    
   2.400       11.46    
   2.500       11.53    
   2.600       11.47    
   2.700       11.27    
   2.800       10.95    
   2.900       10.53    
   3.000       10.01    
   3.100       9.431    
   3.200       8.803    
   3.300       8.146    
   3.400       7.479    
   3.500       6.818    
   3.600       6.176    
   3.700       5.563    
   3.800       4.986    
   3.900       4.450    
   4.000       3.956    
   4.100       3.506    
   4.200       3.096    
   4.300       2.724    
   4.400       2.388    
   4.500       2.083    
   4.600       1.806    
   4.700       1.554    
   4.800       1.325    
   4.900       1.118    
   5.000      0.9301    
   5.100      0.7619    
   5.200      0.6128    
   5.300      0.4824    
   5.400      0.3706    
   5.500      0.2770    
   5.600      0.2009    
   5.700      0.1414    
   5.800      0.9714E-01
   5.900      0.6668E-01
   6.000      0.4819E-01
   6.100      0.3978E-01
   6.200      0.3950E-01
   6.300      0.4550E-01
   6.400      0.5611E-01
   6.500      0.6988E-01
   6.600      0.8565E-01
   6.700      0.1026    
   6.800      0.1201    
   6.900      0.1378    
   7.000      0.1555    
   7.100      0.1733    
   7.200      0.1911    
   7.300      0.2089    
   7.400      0.2267    
   7.500      0.2442    
   7.600      0.2612    
   7.700      0.2773    
   7.800      0.2920    
   7.900      0.3049    
   8.000      0.3155    
   8.100      0.3233    
   8.200      0.3279    
   8.300      0.3292    
   8.400      0.3271    
   8.500      0.3216    
   8.600      0.3130    
   8.700      0.3017    
   8.800      0.2880    
   8.900      0.2725    
   9.000      0.2558    
   9.100      0.2382    
   9.200      0.2203    
   9.300      0.2025    
   9.400      0.1851    
   9.500      0.1683    
   9.600      0.1522    
   9.700      0.1370    
   9.800      0.1226    
   9.900      0.1092    
   10.00      0.9660E-01
   10.10      0.8493E-01
   10.20      0.7420E-01
   10.30      0.6447E-01
   10.40      0.5580E-01
   10.50      0.4830E-01
   10.60      0.4205E-01
   10.70      0.3713E-01
   10.80      0.3359E-01
   10.90      0.3143E-01
   11.00      0.3059E-01
   11.10      0.3098E-01
   11.20      0.3242E-01
   11.30      0.3473E-01
   11.40      0.3764E-01
   11.50      0.4091E-01
   11.60      0.4429E-01
   11.70      0.4753E-01
   11.80      0.5045E-01
   11.90      0.5290E-01
   12.00      0.5479E-01
   12.10      0.5611E-01
   12.20      0.5688E-01
   12.30      0.5719E-01
   12.40      0.5716E-01
   12.50      0.5692E-01
   12.60      0.5662E-01
   12.70      0.5638E-01
   12.80      0.5630E-01
   12.90      0.5645E-01
   13.00      0.5686E-01
   13.10      0.5752E-01
   13.20      0.5835E-01
   13.30      0.5929E-01
   13.40      0.6023E-01
   13.50      0.6105E-01
   13.60      0.6165E-01
   13.70      0.6192E-01
   13.80      0.6181E-01
   13.90      0.6125E-01
   14.00      0.6024E-01
   14.10      0.5878E-01
   14.20      0.5693E-01
   14.30      0.5472E-01
   14.40      0.5225E-01
   14.50      0.4957E-01
   14.60      0.4675E-01
   14.70      0.4388E-01
   14.80      0.4099E-01
   14.90      0.3814E-01
   15.00      0.3536E-01
   15.10      0.3266E-01
   15.20      0.3007E-01
   15.30      0.2760E-01
   15.40      0.2527E-01
   15.50      0.2311E-01
   15.60      0.2113E-01
   15.70      0.1937E-01
   15.80      0.1787E-01
   15.90      0.1666E-01
   16.00      0.1578E-01
   16.10      0.1524E-01
   16.20      0.1506E-01
   16.30      0.1522E-01
   16.40      0.1570E-01
   16.50      0.1645E-01
   16.60      0.1742E-01
   16.70      0.1851E-01
   16.80      0.1966E-01
   16.90      0.2076E-01
   17.00      0.2174E-01
   17.10      0.2252E-01
   17.20      0.2305E-01
   17.30      0.2329E-01
   17.40      0.2322E-01
   17.50      0.2286E-01
   17.60      0.2224E-01
   17.70      0.2141E-01
   17.80      0.2043E-01
   17.90      0.1938E-01
   18.00      0.1832E-01
   18.10      0.1732E-01
   18.20      0.1643E-01
   18.30      0.1569E-01
   18.40      0.1512E-01
   18.50      0.1473E-01
   18.60      0.1452E-01
   18.70      0.1444E-01
   18.80      0.1448E-01
   18.90      0.1459E-01
   19.00      0.1473E-01
   19.10      0.1487E-01
   19.20      0.1498E-01
   19.30      0.1502E-01
   19.40      0.1500E-01
   19.50      0.1489E-01
   19.60      0.1470E-01
   19.70      0.1444E-01
   19.80      0.1412E-01
   19.90      0.1375E-01
   20.00      0.1334E-01
   20.10      0.1290E-01
   20.20      0.1243E-01
   20.30      0.1194E-01
   20.40      0.1143E-01
   20.50      0.1089E-01
   20.60      0.1033E-01
   20.70      0.9749E-02
   20.80      0.9157E-02
   20.90      0.8563E-02
   21.00      0.7983E-02
   21.10      0.7436E-02
   21.20      0.6944E-02
   21.30      0.6528E-02
   21.40      0.6208E-02
   21.50      0.6002E-02
   21.60      0.5919E-02
   21.70      0.5960E-02
   21.80      0.6120E-02
   21.90      0.6382E-02
   22.00      0.6722E-02
   22.10      0.7110E-02
   22.20      0.7511E-02
   22.30      0.7889E-02
   22.40      0.8209E-02
   22.50      0.8441E-02
   22.60      0.8563E-02
   22.70      0.8560E-02
   22.80      0.8430E-02
   22.90      0.8177E-02
   23.00      0.7817E-02
   23.10      0.7372E-02
   23.20      0.6871E-02
   23.30      0.6343E-02
   23.40      0.5818E-02
   23.50      0.5325E-02
   23.60      0.4885E-02
   23.70      0.4514E-02
   23.80      0.4222E-02
   23.90      0.4011E-02
   24.00      0.3875E-02
   24.10      0.3806E-02
   24.20      0.3790E-02
   24.30      0.3812E-02
   24.40      0.3858E-02
   24.50      0.3915E-02
   24.60      0.3972E-02
   24.70      0.4021E-02
   24.80      0.4060E-02
   24.90      0.4086E-02
   25.00      0.4102E-02
   25.10      0.4109E-02
   25.20      0.4110E-02
   25.30      0.4107E-02
   25.40      0.4100E-02
   25.50      0.4088E-02
   25.60      0.4066E-02
   25.70      0.4031E-02
   25.80      0.3976E-02
   25.90      0.3896E-02
   26.00      0.3787E-02
   26.10      0.3648E-02
   26.20      0.3479E-02
   26.30      0.3285E-02
   26.40      0.3074E-02
   26.50      0.2856E-02
   26.60      0.2644E-02
   26.70      0.2450E-02
   26.80      0.2289E-02
   26.90      0.2170E-02
   27.00      0.2102E-02
   27.10      0.2089E-02
   27.20      0.2129E-02
   27.30      0.2217E-02
   27.40      0.2343E-02
   27.50      0.2493E-02
   27.60      0.2653E-02
   27.70      0.2805E-02
   27.80      0.2933E-02
   27.90      0.3026E-02
   28.00      0.3071E-02
   28.10      0.3063E-02
   28.20      0.3002E-02
   28.30      0.2889E-02
   28.40      0.2733E-02
   28.50      0.2545E-02
   28.60      0.2336E-02
   28.70      0.2120E-02
   28.80      0.1911E-02
   28.90      0.1720E-02
   29.00      0.1554E-02
   29.10      0.1419E-02
   29.20      0.1318E-02
   29.30      0.1250E-02
   29.40      0.1210E-02
   29.50      0.1193E-02
   29.60      0.1193E-02
   29.70      0.1203E-02
   29.80      0.1218E-02
   29.90      0.1234E-02
   30.00      0.1247E-02
   30.10      0.1257E-02
   30.20      0.1264E-02
   30.30      0.1272E-02
   30.40      0.1282E-02
   30.50      0.1297E-02
   30.60      0.1319E-02
   30.70      0.1348E-02
   30.80      0.1383E-02
   30.90      0.1422E-02
   31.00      0.1461E-02
   31.10      0.1494E-02
   31.20      0.1517E-02
   31.30      0.1524E-02
   31.40      0.1511E-02
   31.50      0.1475E-02
   31.60      0.1417E-02
   31.70      0.1339E-02
   31.80      0.1244E-02
   31.90      0.1138E-02
   32.00      0.1029E-02
   32.10      0.9260E-03
   32.20      0.8356E-03
   32.30      0.7651E-03
   32.40      0.7194E-03
   32.50      0.7015E-03
   32.60      0.7113E-03
   32.70      0.7463E-03
   32.80      0.8015E-03
   32.90      0.8702E-03
   33.00      0.9443E-03
   33.10      0.1015E-02
   33.20      0.1076E-02
   33.30      0.1119E-02
   33.40      0.1139E-02
   33.50      0.1135E-02
   33.60      0.1107E-02
   33.70      0.1056E-02
   33.80      0.9880E-03
   33.90      0.9074E-03
   34.00      0.8211E-03
   34.10      0.7356E-03
   34.20      0.6567E-03
   34.30      0.5889E-03
   34.40      0.5353E-03
   34.50      0.4969E-03
   34.60      0.4732E-03
   34.70      0.4621E-03
   34.80      0.4605E-03
   34.90      0.4647E-03
   35.00      0.4710E-03
   35.10      0.4763E-03
   35.20      0.4783E-03
   35.30      0.4760E-03
   35.40      0.4695E-03
   35.50      0.4602E-03
   35.60      0.4503E-03
   35.70      0.4424E-03
   35.80      0.4394E-03
   35.90      0.4433E-03
   36.00      0.4556E-03
   36.10      0.4766E-03
   36.20      0.5053E-03
   36.30      0.5392E-03
   36.40      0.5753E-03
   36.50      0.6095E-03
   36.60      0.6377E-03
   36.70      0.6560E-03
   36.80      0.6613E-03
   36.90      0.6517E-03
   37.00      0.6268E-03
   37.10      0.5878E-03
   37.20      0.5371E-03
   37.30      0.4788E-03
   37.40      0.4175E-03
   37.50      0.3584E-03
   37.60      0.3063E-03
   37.70      0.2655E-03
   37.80      0.2390E-03
   37.90      0.2284E-03
   38.00      0.2335E-03
   38.10      0.2528E-03
   38.20      0.2832E-03
   38.30      0.3206E-03
   38.40      0.3603E-03
   38.50      0.3977E-03
   38.60      0.4285E-03
   38.70      0.4493E-03
   38.80      0.4580E-03
   38.90      0.4538E-03
   39.00      0.4374E-03
   39.10      0.4107E-03
   39.20      0.3767E-03
   39.30      0.3389E-03
   39.40      0.3009E-03
   39.50      0.2662E-03
   39.60      0.2375E-03
   39.70      0.2166E-03
   39.80      0.2043E-03
   39.90      0.2000E-03
   40.00      0.2024E-03
   40.10      0.2094E-03
   40.20      0.2184E-03
   40.30      0.2268E-03
   40.40      0.2324E-03
   40.50      0.2337E-03
   40.60      0.2297E-03
   40.70      0.2207E-03
   40.80      0.2078E-03
   40.90      0.1926E-03
   41.00      0.1776E-03
   41.10      0.1652E-03
   41.20      0.1576E-03
   41.30      0.1566E-03
   41.40      0.1631E-03
   41.50      0.1771E-03
   41.60      0.1977E-03
   41.70      0.2230E-03
   41.80      0.2504E-03
   41.90      0.2769E-03
   42.00      0.2994E-03
   42.10      0.3152E-03
   42.20      0.3221E-03
   42.30      0.3189E-03
   42.40      0.3053E-03
   42.50      0.2824E-03
   42.60      0.2518E-03
   42.70      0.2165E-03
   42.80      0.1795E-03
   42.90      0.1443E-03
   43.00      0.1139E-03
   43.10      0.9091E-04
   43.20      0.7712E-04
   43.30      0.7324E-04
   43.40      0.7891E-04
   43.50      0.9279E-04
   43.60      0.1127E-03
   43.70      0.1359E-03
   43.80      0.1595E-03
   43.90      0.1805E-03
   44.00      0.1966E-03
   44.10      0.2061E-03
   44.20      0.2080E-03
   44.30      0.2024E-03
   44.40      0.1904E-03
   44.50      0.1735E-03
   44.60      0.1539E-03
   44.70      0.1340E-03
   44.80      0.1161E-03
   44.90      0.1020E-03
   45.00      0.9314E-04
   45.10      0.8999E-04
   45.20      0.9235E-04
   45.30      0.9925E-04
   45.40      0.1092E-03
   45.50      0.1202E-03
   45.60      0.1304E-03
   45.70      0.1379E-03
   45.80      0.1413E-03
   45.90      0.1398E-03
   46.00      0.1333E-03
   46.10      0.1225E-03
   46.20      0.1086E-03
   46.30      0.9328E-04
   46.40      0.7864E-04
   46.50      0.6665E-04
   46.60      0.5902E-04
   46.70      0.5699E-04
   46.80      0.6111E-04
   46.90      0.7122E-04
   47.00      0.8638E-04
   47.10      0.1050E-03
   47.20      0.1251E-03
   47.30      0.1444E-03
   47.40      0.1606E-03
   47.50      0.1718E-03
   47.60      0.1767E-03
   47.70      0.1743E-03
   47.80      0.1650E-03
   47.90      0.1494E-03
   48.00      0.1290E-03
   48.10      0.1060E-03
   48.20      0.8251E-04
   48.30      0.6088E-04
   48.40      0.4314E-04
   48.50      0.3084E-04
   48.60      0.2492E-04
   48.70      0.2554E-04
   48.80      0.3217E-04
   48.90      0.4361E-04
   49.00      0.5815E-04
   49.10      0.7383E-04
   49.20      0.8865E-04
   49.30      0.1008E-03
   49.40      0.1088E-03
   49.50      0.1120E-03
   49.60      0.1101E-03
   49.70      0.1035E-03
   49.80      0.9326E-04
   49.90      0.8089E-04
   50.00      0.6803E-04
   50.10      0.5636E-04
   50.20      0.4735E-04
   50.30      0.4210E-04
   50.40      0.4117E-04
   50.50      0.4453E-04
   50.60      0.5159E-04
   50.70      0.6126E-04
   50.80      0.7211E-04
   50.90      0.8258E-04
   51.00      0.9112E-04
   51.10      0.9647E-04
   51.20      0.9776E-04
   51.30      0.9465E-04
   51.40      0.8740E-04
   51.50      0.7679E-04
   51.60      0.6405E-04
   51.70      0.5072E-04
   51.80      0.3844E-04
   51.90      0.2874E-04
   52.00      0.2289E-04
   52.10      0.2169E-04
   52.20      0.2537E-04
   52.30      0.3362E-04
   52.40      0.4553E-04
   52.50      0.5978E-04
   52.60      0.7473E-04
   52.70      0.8866E-04
   52.80      0.9994E-04
   52.90      0.1072E-03
   53.00      0.1097E-03
   53.10      0.1069E-03
   53.20      0.9918E-04
   53.30      0.8735E-04
   53.40      0.7264E-04
   53.50      0.5663E-04
   53.60      0.4100E-04
   53.70      0.2734E-04
   53.80      0.1700E-04
   53.90      0.1089E-04
   54.00      0.9415E-05
   54.10      0.1244E-04
   54.20      0.1931E-04
   54.30      0.2894E-04
   54.40      0.3997E-04
   54.50      0.5090E-04
   54.60      0.6035E-04
   54.70      0.6713E-04
   54.80      0.7048E-04
   54.90      0.7007E-04
   55.00      0.6606E-04
   55.10      0.5911E-04
   55.20      0.5021E-04
   55.30      0.4060E-04
   55.40      0.3161E-04
   55.50      0.2444E-04
   55.60      0.2008E-04
   55.70      0.1910E-04
   55.80      0.2167E-04
   55.90      0.2746E-04
   56.00      0.3574E-04
   56.10      0.4545E-04
   56.20      0.5533E-04
   56.30      0.6411E-04
   56.40      0.7061E-04
   56.50      0.7397E-04
   56.60      0.7369E-04
   56.70      0.6973E-04
   56.80      0.6250E-04
   56.90      0.5283E-04
   57.00      0.4185E-04
   57.10      0.3085E-04
   57.20      0.2114E-04
   57.30      0.1390E-04
   57.40      0.9993E-05
   57.50      0.9894E-05
   57.60      0.1363E-04
   57.70      0.2075E-04
   57.80      0.3043E-04
   57.90      0.4152E-04
   58.00      0.5271E-04
   58.10      0.6266E-04
   58.20      0.7021E-04
   58.30      0.7447E-04
   58.40      0.7492E-04
   58.50      0.7151E-04
   58.60      0.6464E-04
   58.70      0.5507E-04
   58.80      0.4390E-04
   58.90      0.3237E-04
   59.00      0.2174E-04
   59.10      0.1315E-04
   59.20      0.7441E-05
   59.30      0.5127E-05
   59.40      0.6285E-05
   59.50      0.1058E-04
   59.60      0.1731E-04
   59.70      0.2550E-04
   59.80      0.3403E-04
   59.90      0.4177E-04
   60.00      0.4772E-04
   60.10      0.5114E-04
   60.20      0.5163E-04
   60.30      0.4918E-04
   60.40      0.4417E-04
   60.50      0.3730E-04
   60.60      0.2950E-04
   60.70      0.2183E-04
   60.80      0.1533E-04
   60.90      0.1089E-04
   61.00      0.9115E-05
   61.10      0.1030E-04
   61.20      0.1435E-04
   61.30      0.2079E-04
   61.40      0.2887E-04
   61.50      0.3761E-04
   61.60      0.4593E-04
   61.70      0.5280E-04
   61.80      0.5738E-04
   61.90      0.5907E-04
   62.00      0.5765E-04
   62.10      0.5325E-04
   62.20      0.4637E-04
   62.30      0.3783E-04
   62.40      0.2861E-04
   62.50      0.1981E-04
   62.60      0.1245E-04
   62.70      0.7398E-05
   62.80      0.5225E-05
   62.90      0.6165E-05
   63.00      0.1008E-04
   63.10      0.1646E-04
   63.20      0.2453E-04
   63.30      0.3330E-04
   63.40      0.4171E-04
   63.50      0.4874E-04
   63.60      0.5355E-04
   63.70      0.5559E-04
   63.80      0.5460E-04
   63.90      0.5072E-04
   64.00      0.4442E-04
   64.10      0.3644E-04
   64.20      0.2771E-04
   64.30      0.1925E-04
   64.40      0.1200E-04
   64.50      0.6767E-05
   64.60      0.4067E-05
   64.70      0.4118E-05
   64.80      0.6792E-05
   64.90      0.1165E-04
   65.00      0.1797E-04
   65.10      0.2491E-04
   65.20      0.3152E-04
   65.30      0.3695E-04
   65.40      0.4049E-04
   65.50      0.4170E-04
   65.60      0.4043E-04
   65.70      0.3687E-04
   65.80      0.3149E-04
   65.90      0.2500E-04
   66.00      0.1825E-04
   66.10      0.1214E-04
   66.20      0.7475E-05
   66.30      0.4884E-05
   66.40      0.4744E-05
   66.50      0.7125E-05
   66.60      0.1178E-04
   66.70      0.1819E-04
   66.80      0.2559E-04
   66.90      0.3311E-04
   67.00      0.3986E-04
   67.10      0.4502E-04
   67.20      0.4798E-04
   67.30      0.4837E-04
   67.40      0.4615E-04
   67.50      0.4157E-04
   67.60      0.3518E-04
   67.70      0.2773E-04
   67.80      0.2010E-04
   67.90      0.1317E-04
   68.00      0.7754E-05
   68.10      0.4460E-05
   68.20      0.3641E-05
   68.30      0.5347E-05
   68.40      0.9326E-05
   68.50      0.1505E-04
   68.60      0.2180E-04
   68.70      0.2872E-04
   68.80      0.3496E-04
   68.90      0.3975E-04
   69.00      0.4251E-04
   69.10      0.4290E-04
   69.20      0.4090E-04
   69.30      0.3675E-04
   69.40      0.3097E-04
   69.50      0.2424E-04
   69.60      0.1739E-04
   69.70      0.1123E-04
   69.80      0.6466E-05
   69.90      0.3641E-05
   70.00      0.3045E-05
   70.10      0.4692E-05
   70.20      0.8317E-05
   70.30      0.1342E-04
   70.40      0.1931E-04
   70.50      0.2522E-04
   70.60      0.3039E-04
   70.70      0.3416E-04
   70.80      0.3604E-04
   70.90      0.3580E-04
   71.00      0.3347E-04
   71.10      0.2936E-04
   71.20      0.2398E-04
   71.30      0.1801E-04
   71.40      0.1223E-04
   71.50      0.7372E-05
   71.60      0.4058E-05
   71.70      0.2729E-05
   71.80      0.3581E-05
   71.90      0.6538E-05
   72.00      0.1127E-04
   72.10      0.1722E-04
   72.20      0.2368E-04
   72.30      0.2990E-04
   72.40      0.3513E-04
   72.50      0.3874E-04
   72.60      0.4032E-04
   72.70      0.3967E-04
   72.80      0.3688E-04
   72.90      0.3229E-04
   73.00      0.2644E-04
   73.10      0.2004E-04
   73.20      0.1383E-04
   73.30      0.8542E-05
   73.40      0.4781E-05
   73.50      0.2961E-05
   73.60      0.3259E-05
   73.70      0.5589E-05
   73.80      0.9624E-05
   73.90      0.1483E-04
   74.00      0.2054E-04
   74.10      0.2602E-04
   74.20      0.3060E-04
   74.30      0.3369E-04
   74.40      0.3492E-04
   74.50      0.3415E-04
   74.60      0.3147E-04
   74.70      0.2721E-04
   74.80      0.2191E-04
   74.90      0.1621E-04
   75.00      0.1082E-04
   75.10      0.6387E-05
   75.20      0.3438E-05
   75.30      0.2320E-05
   75.40      0.3148E-05
   75.50      0.5797E-05
   75.60      0.9916E-05
   75.70      0.1498E-04
   75.80      0.2034E-04
   75.90      0.2532E-04
   76.00      0.2930E-04
   76.10      0.3178E-04
   76.20      0.3246E-04
   76.30      0.3124E-04
   76.40      0.2828E-04
   76.50      0.2396E-04
   76.60      0.1881E-04
   76.70      0.1347E-04
   76.80      0.8600E-05
   76.90      0.4818E-05
   77.00      0.2592E-05
   77.10      0.2205E-05
   77.20      0.3715E-05
   77.30      0.6946E-05
   77.40      0.1151E-04
   77.50      0.1687E-04
   77.60      0.2237E-04
   77.70      0.2735E-04
   77.80      0.3122E-04
   77.90      0.3351E-04
   78.00      0.3396E-04
   78.10      0.3251E-04
   78.20      0.2935E-04
   78.30      0.2486E-04
   78.40      0.1959E-04
   78.50      0.1416E-04
   78.60      0.9218E-05
   78.70      0.5344E-05
   78.80      0.2978E-05
   78.90      0.2376E-05
   79.00      0.3574E-05
   79.10      0.6386E-05
   79.20      0.1043E-04
   79.30      0.1518E-04
   79.40      0.2003E-04
   79.50      0.2436E-04
