#  Theta       sigma       iT11        T20         T21         T22         Kyy for projectile
   0.000       69.28    
  0.1000       69.15    
  0.2000       68.75    
  0.3000       68.10    
  0.4000       67.21    
  0.5000       66.10    
  0.6000       64.78    
  0.7000       63.29    
  0.8000       61.66    
  0.9000       59.91    
   1.000       58.09    
   1.100       56.23    
   1.200       54.38    
   1.300       52.56    
   1.400       50.83    
   1.500       49.21    
   1.600       47.75    
   1.700       46.48    
   1.800       45.43    
   1.900       44.63    
   2.000       44.11    
   2.100       43.88    
   2.200       43.95    
   2.300       44.35    
   2.400       45.06    
   2.500       46.10    
   2.600       47.45    
   2.700       49.10    
   2.800       51.04    
   2.900       53.24    
   3.000       55.67    
   3.100       58.31    
   3.200       61.12    
   3.300       64.05    
   3.400       67.08    
   3.500       70.15    
   3.600       73.23    
   3.700       76.26    
   3.800       79.21    
   3.900       82.02    
   4.000       84.66    
   4.100       87.08    
   4.200       89.24    
   4.300       91.12    
   4.400       92.68    
   4.500       93.88    
   4.600       94.72    
   4.700       95.17    
   4.800       95.21    
   4.900       94.85    
   5.000       94.07    
   5.100       92.88    
   5.200       91.30    
   5.300       89.33    
   5.400       86.99    
   5.500       84.30    
   5.600       81.29    
   5.700       78.00    
   5.800       74.45    
   5.900       70.69    
   6.000       66.75    
   6.100       62.67    
   6.200       58.49    
   6.300       54.26    
   6.400       50.02    
   6.500       45.80    
   6.600       41.66    
   6.700       37.62    
   6.800       33.73    
   6.900       30.01    
   7.000       26.50    
   7.100       23.23    
   7.200       20.21    
   7.300       17.47    
   7.400       15.02    
   7.500       12.88    
   7.600       11.05    
   7.700       9.532    
   7.800       8.327    
   7.900       7.430    
   8.000       6.833    
   8.100       6.522    
   8.200       6.483    
   8.300       6.697    
   8.400       7.144    
   8.500       7.799    
   8.600       8.639    
   8.700       9.637    
   8.800       10.77    
   8.900       12.00    
   9.000       13.31    
   9.100       14.66    
   9.200       16.04    
   9.300       17.41    
   9.400       18.75    
   9.500       20.04    
   9.600       21.25    
   9.700       22.37    
   9.800       23.37    
   9.900       24.25    
   10.00       25.00    
   10.10       25.60    
   10.20       26.04    
   10.30       26.32    
   10.40       26.45    
   10.50       26.41    
   10.60       26.22    
   10.70       25.88    
   10.80       25.39    
   10.90       24.77    
   11.00       24.02    
   11.10       23.17    
   11.20       22.21    
   11.30       21.17    
   11.40       20.06    
   11.50       18.90    
   11.60       17.70    
   11.70       16.48    
   11.80       15.24    
   11.90       14.02    
   12.00       12.82    
   12.10       11.65    
   12.20       10.53    
   12.30       9.464    
   12.40       8.469    
   12.50       7.550    
   12.60       6.714    
   12.70       5.968    
   12.80       5.315    
   12.90       4.759    
   13.00       4.300    
   13.10       3.938    
   13.20       3.672    
   13.30       3.500    
   13.40       3.417    
   13.50       3.418    
   13.60       3.498    
   13.70       3.650    
   13.80       3.867    
   13.90       4.140    
   14.00       4.462    
   14.10       4.824    
   14.20       5.216    
   14.30       5.631    
   14.40       6.059    
   14.50       6.492    
   14.60       6.923    
   14.70       7.342    
   14.80       7.744    
   14.90       8.121    
   15.00       8.468    
   15.10       8.779    
   15.20       9.051    
   15.30       9.279    
   15.40       9.461    
   15.50       9.594    
   15.60       9.678    
   15.70       9.711    
   15.80       9.695    
   15.90       9.630    
   16.00       9.518    
   16.10       9.362    
   16.20       9.163    
   16.30       8.925    
   16.40       8.652    
   16.50       8.349    
   16.60       8.018    
   16.70       7.665    
   16.80       7.295    
   16.90       6.912    
   17.00       6.520    
   17.10       6.125    
   17.20       5.730    
   17.30       5.340    
   17.40       4.959    
   17.50       4.591    
   17.60       4.238    
   17.70       3.905    
   17.80       3.593    
   17.90       3.305    
   18.00       3.043    
   18.10       2.807    
   18.20       2.600    
   18.30       2.421    
   18.40       2.271    
   18.50       2.149    
   18.60       2.055    
   18.70       1.987    
   18.80       1.946    
   18.90       1.928    
   19.00       1.933    
   19.10       1.958    
   19.20       2.001    
   19.30       2.061    
   19.40       2.133    
   19.50       2.217    
   19.60       2.310    
   19.70       2.409    
   19.80       2.512    
   19.90       2.617    
   20.00       2.721    
   20.10       2.822    
   20.20       2.918    
   20.30       3.008    
   20.40       3.090    
   20.50       3.163    
   20.60       3.225    
   20.70       3.276    
   20.80       3.315    
   20.90       3.340    
   21.00       3.353    
   21.10       3.352    
   21.20       3.338    
   21.30       3.312    
   21.40       3.273    
   21.50       3.221    
   21.60       3.159    
   21.70       3.087    
   21.80       3.005    
   21.90       2.915    
   22.00       2.817    
   22.10       2.714    
   22.20       2.605    
   22.30       2.494    
   22.40       2.379    
   22.50       2.264    
   22.60       2.148    
   22.70       2.033    
   22.80       1.921    
   22.90       1.811    
   23.00       1.705    
   23.10       1.604    
   23.20       1.509    
   23.30       1.419    
   23.40       1.336    
   23.50       1.260    
   23.60       1.190    
   23.70       1.129    
   23.80       1.074    
   23.90       1.027    
   24.00      0.9879    
   24.10      0.9554    
   24.20      0.9298    
   24.30      0.9107    
   24.40      0.8976    
   24.50      0.8902    
   24.60      0.8879    
   24.70      0.8902    
   24.80      0.8965    
   24.90      0.9063    
   25.00      0.9188    
   25.10      0.9336    
   25.20      0.9499    
   25.30      0.9674    
   25.40      0.9853    
   25.50       1.003    
   25.60       1.020    
   25.70       1.037    
   25.80       1.052    
   25.90       1.065    
   26.00       1.076    
   26.10       1.084    
   26.20       1.090    
   26.30       1.093    
   26.40       1.094    
   26.50       1.091    
   26.60       1.085    
   26.70       1.076    
   26.80       1.064    
   26.90       1.050    
   27.00       1.033    
   27.10       1.013    
   27.20      0.9905    
   27.30      0.9662    
   27.40      0.9400    
   27.50      0.9122    
   27.60      0.8830    
   27.70      0.8528    
   27.80      0.8217    
   27.90      0.7902    
   28.00      0.7584    
   28.10      0.7267    
   28.20      0.6952    
   28.30      0.6643    
   28.40      0.6340    
   28.50      0.6048    
   28.60      0.5767    
   28.70      0.5498    
   28.80      0.5244    
   28.90      0.5006    
   29.00      0.4784    
   29.10      0.4579    
   29.20      0.4392    
   29.30      0.4223    
   29.40      0.4072    
   29.50      0.3938    
   29.60      0.3822    
   29.70      0.3722    
   29.80      0.3638    
   29.90      0.3569    
   30.00      0.3515    
   30.10      0.3473    
   30.20      0.3442    
   30.30      0.3423    
   30.40      0.3412    
   30.50      0.3409    
   30.60      0.3412    
   30.70      0.3420    
   30.80      0.3432    
   30.90      0.3446    
   31.00      0.3462    
   31.10      0.3477    
   31.20      0.3491    
   31.30      0.3503    
   31.40      0.3512    
   31.50      0.3518    
   31.60      0.3518    
   31.70      0.3514    
   31.80      0.3504    
   31.90      0.3489    
   32.00      0.3467    
   32.10      0.3439    
   32.20      0.3405    
   32.30      0.3365    
   32.40      0.3318    
   32.50      0.3266    
   32.60      0.3208    
   32.70      0.3145    
   32.80      0.3078    
   32.90      0.3006    
   33.00      0.2931    
   33.10      0.2853    
   33.20      0.2772    
   33.30      0.2690    
   33.40      0.2606    
   33.50      0.2521    
   33.60      0.2436    
   33.70      0.2352    
   33.80      0.2269    
   33.90      0.2187    
   34.00      0.2107    
   34.10      0.2030    
   34.20      0.1955    
   34.30      0.1884    
   34.40      0.1816    
   34.50      0.1752    
   34.60      0.1691    
   34.70      0.1635    
   34.80      0.1582    
   34.90      0.1534    
   35.00      0.1490    
   35.10      0.1449    
   35.20      0.1413    
   35.30      0.1380    
   35.40      0.1352    
   35.50      0.1326    
   35.60      0.1304    
   35.70      0.1285    
   35.80      0.1268    
   35.90      0.1254    
   36.00      0.1242    
   36.10      0.1232    
   36.20      0.1223    
   36.30      0.1216    
   36.40      0.1209    
   36.50      0.1203    
   36.60      0.1198    
   36.70      0.1193    
   36.80      0.1187    
   36.90      0.1182    
   37.00      0.1176    
   37.10      0.1169    
   37.20      0.1161    
   37.30      0.1153    
   37.40      0.1143    
   37.50      0.1133    
   37.60      0.1121    
   37.70      0.1108    
   37.80      0.1094    
   37.90      0.1078    
   38.00      0.1061    
   38.10      0.1044    
   38.20      0.1025    
   38.30      0.1005    
   38.40      0.9842E-01
   38.50      0.9626E-01
   38.60      0.9403E-01
   38.70      0.9175E-01
   38.80      0.8942E-01
   38.90      0.8706E-01
   39.00      0.8467E-01
   39.10      0.8228E-01
   39.20      0.7989E-01
   39.30      0.7752E-01
   39.40      0.7518E-01
   39.50      0.7287E-01
   39.60      0.7061E-01
   39.70      0.6841E-01
   39.80      0.6628E-01
   39.90      0.6422E-01
   40.00      0.6224E-01
   40.10      0.6035E-01
   40.20      0.5855E-01
   40.30      0.5683E-01
   40.40      0.5522E-01
   40.50      0.5370E-01
   40.60      0.5228E-01
   40.70      0.5095E-01
   40.80      0.4972E-01
   40.90      0.4858E-01
   41.00      0.4752E-01
   41.10      0.4655E-01
   41.20      0.4566E-01
   41.30      0.4485E-01
   41.40      0.4410E-01
   41.50      0.4342E-01
   41.60      0.4280E-01
   41.70      0.4222E-01
   41.80      0.4169E-01
   41.90      0.4120E-01
   42.00      0.4074E-01
   42.10      0.4031E-01
   42.20      0.3989E-01
   42.30      0.3949E-01
   42.40      0.3910E-01
   42.50      0.3872E-01
   42.60      0.3833E-01
   42.70      0.3794E-01
   42.80      0.3754E-01
   42.90      0.3713E-01
   43.00      0.3670E-01
   43.10      0.3626E-01
   43.20      0.3580E-01
   43.30      0.3532E-01
   43.40      0.3482E-01
   43.50      0.3430E-01
   43.60      0.3376E-01
   43.70      0.3320E-01
   43.80      0.3262E-01
   43.90      0.3202E-01
   44.00      0.3140E-01
   44.10      0.3077E-01
   44.20      0.3013E-01
   44.30      0.2948E-01
   44.40      0.2882E-01
   44.50      0.2815E-01
   44.60      0.2748E-01
   44.70      0.2681E-01
   44.80      0.2614E-01
   44.90      0.2547E-01
   45.00      0.2481E-01
   45.10      0.2416E-01
   45.20      0.2352E-01
   45.30      0.2289E-01
   45.40      0.2228E-01
   45.50      0.2168E-01
   45.60      0.2111E-01
   45.70      0.2055E-01
   45.80      0.2001E-01
   45.90      0.1949E-01
   46.00      0.1899E-01
   46.10      0.1852E-01
   46.20      0.1806E-01
   46.30      0.1763E-01
   46.40      0.1722E-01
   46.50      0.1684E-01
   46.60      0.1647E-01
   46.70      0.1613E-01
   46.80      0.1580E-01
   46.90      0.1550E-01
   47.00      0.1521E-01
   47.10      0.1494E-01
   47.20      0.1468E-01
   47.30      0.1444E-01
   47.40      0.1421E-01
   47.50      0.1399E-01
   47.60      0.1378E-01
   47.70      0.1358E-01
   47.80      0.1339E-01
   47.90      0.1321E-01
   48.00      0.1303E-01
   48.10      0.1285E-01
   48.20      0.1268E-01
   48.30      0.1251E-01
   48.40      0.1234E-01
   48.50      0.1217E-01
   48.60      0.1200E-01
   48.70      0.1182E-01
   48.80      0.1165E-01
   48.90      0.1147E-01
   49.00      0.1130E-01
   49.10      0.1112E-01
   49.20      0.1093E-01
   49.30      0.1075E-01
   49.40      0.1056E-01
   49.50      0.1036E-01
   49.60      0.1017E-01
   49.70      0.9971E-02
   49.80      0.9771E-02
   49.90      0.9570E-02
   50.00      0.9368E-02
   50.10      0.9164E-02
   50.20      0.8961E-02
   50.30      0.8757E-02
   50.40      0.8554E-02
   50.50      0.8352E-02
   50.60      0.8152E-02
   50.70      0.7953E-02
   50.80      0.7757E-02
   50.90      0.7564E-02
   51.00      0.7374E-02
   51.10      0.7189E-02
   51.20      0.7007E-02
   51.30      0.6830E-02
   51.40      0.6657E-02
   51.50      0.6489E-02
   51.60      0.6327E-02
   51.70      0.6170E-02
   51.80      0.6018E-02
   51.90      0.5872E-02
   52.00      0.5732E-02
   52.10      0.5597E-02
   52.20      0.5468E-02
   52.30      0.5344E-02
   52.40      0.5226E-02
   52.50      0.5113E-02
   52.60      0.5004E-02
   52.70      0.4901E-02
   52.80      0.4802E-02
   52.90      0.4708E-02
   53.00      0.4618E-02
   53.10      0.4531E-02
   53.20      0.4449E-02
   53.30      0.4369E-02
   53.40      0.4293E-02
   53.50      0.4219E-02
   53.60      0.4148E-02
   53.70      0.4079E-02
   53.80      0.4012E-02
   53.90      0.3947E-02
   54.00      0.3883E-02
   54.10      0.3820E-02
   54.20      0.3759E-02
   54.30      0.3698E-02
   54.40      0.3638E-02
   54.50      0.3579E-02
   54.60      0.3519E-02
   54.70      0.3461E-02
   54.80      0.3402E-02
   54.90      0.3343E-02
   55.00      0.3285E-02
   55.10      0.3226E-02
   55.20      0.3168E-02
   55.30      0.3110E-02
   55.40      0.3051E-02
   55.50      0.2993E-02
   55.60      0.2934E-02
   55.70      0.2876E-02
   55.80      0.2818E-02
   55.90      0.2760E-02
   56.00      0.2703E-02
   56.10      0.2646E-02
   56.20      0.2589E-02
   56.30      0.2533E-02
   56.40      0.2477E-02
   56.50      0.2422E-02
   56.60      0.2368E-02
   56.70      0.2315E-02
   56.80      0.2263E-02
   56.90      0.2211E-02
   57.00      0.2161E-02
   57.10      0.2112E-02
   57.20      0.2064E-02
   57.30      0.2017E-02
   57.40      0.1971E-02
   57.50      0.1927E-02
   57.60      0.1884E-02
   57.70      0.1842E-02
   57.80      0.1802E-02
   57.90      0.1763E-02
   58.00      0.1725E-02
   58.10      0.1688E-02
   58.20      0.1653E-02
   58.30      0.1619E-02
   58.40      0.1586E-02
   58.50      0.1554E-02
   58.60      0.1523E-02
   58.70      0.1494E-02
   58.80      0.1465E-02
   58.90      0.1438E-02
   59.00      0.1411E-02
   59.10      0.1385E-02
   59.20      0.1360E-02
   59.30      0.1335E-02
   59.40      0.1312E-02
   59.50      0.1288E-02
   59.60      0.1266E-02
   59.70      0.1244E-02
   59.80      0.1222E-02
   59.90      0.1201E-02
   60.00      0.1180E-02
   60.10      0.1159E-02
   60.20      0.1139E-02
   60.30      0.1119E-02
   60.40      0.1099E-02
   60.50      0.1079E-02
   60.60      0.1060E-02
   60.70      0.1040E-02
   60.80      0.1021E-02
   60.90      0.1002E-02
   61.00      0.9831E-03
   61.10      0.9642E-03
   61.20      0.9453E-03
   61.30      0.9266E-03
   61.40      0.9080E-03
   61.50      0.8895E-03
   61.60      0.8711E-03
   61.70      0.8529E-03
   61.80      0.8347E-03
   61.90      0.8168E-03
   62.00      0.7990E-03
   62.10      0.7814E-03
   62.20      0.7640E-03
   62.30      0.7468E-03
   62.40      0.7298E-03
   62.50      0.7131E-03
   62.60      0.6967E-03
   62.70      0.6805E-03
   62.80      0.6646E-03
   62.90      0.6490E-03
   63.00      0.6338E-03
   63.10      0.6189E-03
   63.20      0.6043E-03
   63.30      0.5900E-03
   63.40      0.5762E-03
   63.50      0.5626E-03
   63.60      0.5494E-03
   63.70      0.5366E-03
   63.80      0.5242E-03
   63.90      0.5121E-03
   64.00      0.5004E-03
   64.10      0.4890E-03
   64.20      0.4780E-03
   64.30      0.4673E-03
   64.40      0.4570E-03
   64.50      0.4470E-03
   64.60      0.4373E-03
   64.70      0.4279E-03
   64.80      0.4188E-03
   64.90      0.4100E-03
   65.00      0.4015E-03
   65.10      0.3933E-03
   65.20      0.3853E-03
   65.30      0.3775E-03
   65.40      0.3699E-03
   65.50      0.3626E-03
   65.60      0.3555E-03
   65.70      0.3486E-03
   65.80      0.3418E-03
   65.90      0.3352E-03
   66.00      0.3288E-03
   66.10      0.3225E-03
   66.20      0.3164E-03
   66.30      0.3103E-03
   66.40      0.3045E-03
   66.50      0.2987E-03
   66.60      0.2930E-03
   66.70      0.2874E-03
   66.80      0.2819E-03
   66.90      0.2765E-03
   67.00      0.2712E-03
   67.10      0.2660E-03
   67.20      0.2609E-03
   67.30      0.2558E-03
   67.40      0.2508E-03
   67.50      0.2459E-03
   67.60      0.2410E-03
   67.70      0.2363E-03
   67.80      0.2316E-03
   67.90      0.2269E-03
   68.00      0.2224E-03
   68.10      0.2179E-03
   68.20      0.2135E-03
   68.30      0.2091E-03
   68.40      0.2049E-03
   68.50      0.2007E-03
   68.60      0.1965E-03
   68.70      0.1925E-03
   68.80      0.1886E-03
   68.90      0.1847E-03
   69.00      0.1809E-03
   69.10      0.1772E-03
   69.20      0.1735E-03
   69.30      0.1700E-03
   69.40      0.1665E-03
   69.50      0.1631E-03
   69.60      0.1598E-03
   69.70      0.1565E-03
   69.80      0.1534E-03
   69.90      0.1503E-03
   70.00      0.1473E-03
   70.10      0.1443E-03
   70.20      0.1415E-03
   70.30      0.1387E-03
   70.40      0.1360E-03
   70.50      0.1333E-03
   70.60      0.1307E-03
   70.70      0.1282E-03
   70.80      0.1257E-03
   70.90      0.1233E-03
   71.00      0.1210E-03
   71.10      0.1187E-03
   71.20      0.1164E-03
   71.30      0.1142E-03
   71.40      0.1120E-03
   71.50      0.1099E-03
   71.60      0.1079E-03
   71.70      0.1058E-03
   71.80      0.1038E-03
   71.90      0.1018E-03
   72.00      0.9991E-04
   72.10      0.9800E-04
   72.20      0.9613E-04
   72.30      0.9428E-04
   72.40      0.9245E-04
   72.50      0.9065E-04
   72.60      0.8887E-04
   72.70      0.8711E-04
   72.80      0.8537E-04
   72.90      0.8365E-04
   73.00      0.8196E-04
   73.10      0.8028E-04
   73.20      0.7862E-04
   73.30      0.7698E-04
   73.40      0.7536E-04
   73.50      0.7375E-04
   73.60      0.7217E-04
   73.70      0.7060E-04
   73.80      0.6905E-04
   73.90      0.6752E-04
   74.00      0.6601E-04
   74.10      0.6453E-04
   74.20      0.6306E-04
   74.30      0.6161E-04
   74.40      0.6018E-04
   74.50      0.5878E-04
   74.60      0.5740E-04
   74.70      0.5604E-04
   74.80      0.5471E-04
   74.90      0.5340E-04
   75.00      0.5212E-04
   75.10      0.5086E-04
   75.20      0.4962E-04
   75.30      0.4842E-04
   75.40      0.4724E-04
   75.50      0.4608E-04
   75.60      0.4495E-04
   75.70      0.4385E-04
   75.80      0.4278E-04
   75.90      0.4173E-04
   76.00      0.4072E-04
   76.10      0.3972E-04
   76.20      0.3876E-04
   76.30      0.3782E-04
   76.40      0.3691E-04
   76.50      0.3602E-04
   76.60      0.3517E-04
   76.70      0.3433E-04
   76.80      0.3352E-04
   76.90      0.3274E-04
   77.00      0.3198E-04
   77.10      0.3124E-04
   77.20      0.3053E-04
   77.30      0.2984E-04
   77.40      0.2917E-04
   77.50      0.2853E-04
   77.60      0.2790E-04
   77.70      0.2729E-04
   77.80      0.2671E-04
   77.90      0.2614E-04
   78.00      0.2559E-04
   78.10      0.2505E-04
   78.20      0.2453E-04
   78.30      0.2403E-04
   78.40      0.2355E-04
   78.50      0.2308E-04
   78.60      0.2262E-04
   78.70      0.2217E-04
   78.80      0.2174E-04
   78.90      0.2132E-04
   79.00      0.2092E-04
   79.10      0.2052E-04
   79.20      0.2013E-04
   79.30      0.1976E-04
   79.40      0.1939E-04
   79.50      0.1903E-04
