#  Theta       sigma       iT11        T20         T21         T22         Kyy for projectile
   0.000       71.46    
  0.1000       71.31    
  0.2000       70.85    
  0.3000       70.10    
  0.4000       69.06    
  0.5000       67.76    
  0.6000       66.22    
  0.7000       64.48    
  0.8000       62.56    
  0.9000       60.50    
   1.000       58.35    
   1.100       56.14    
   1.200       53.91    
   1.300       51.72    
   1.400       49.60    
   1.500       47.59    
   1.600       45.75    
   1.700       44.10    
   1.800       42.69    
   1.900       41.54    
   2.000       40.68    
   2.100       40.14    
   2.200       39.94    
   2.300       40.08    
   2.400       40.58    
   2.500       41.43    
   2.600       42.63    
   2.700       44.16    
   2.800       46.02    
   2.900       48.18    
   3.000       50.61    
   3.100       53.28    
   3.200       56.15    
   3.300       59.19    
   3.400       62.35    
   3.500       65.59    
   3.600       68.86    
   3.700       72.10    
   3.800       75.28    
   3.900       78.35    
   4.000       81.26    
   4.100       83.96    
   4.200       86.42    
   4.300       88.59    
   4.400       90.44    
   4.500       91.94    
   4.600       93.07    
   4.700       93.80    
   4.800       94.12    
   4.900       94.01    
   5.000       93.48    
   5.100       92.53    
   5.200       91.16    
   5.300       89.38    
   5.400       87.22    
   5.500       84.68    
   5.600       81.81    
   5.700       78.63    
   5.800       75.18    
   5.900       71.49    
   6.000       67.60    
   6.100       63.56    
   6.200       59.40    
   6.300       55.18    
   6.400       50.93    
   6.500       46.70    
   6.600       42.52    
   6.700       38.45    
   6.800       34.51    
   6.900       30.75    
   7.000       27.19    
   7.100       23.87    
   7.200       20.80    
   7.300       18.01    
   7.400       15.53    
   7.500       13.35    
   7.600       11.48    
   7.700       9.942    
   7.800       8.721    
   7.900       7.817    
   8.000       7.220    
   8.100       6.920    
   8.200       6.900    
   8.300       7.142    
   8.400       7.625    
   8.500       8.324    
   8.600       9.215    
   8.700       10.27    
   8.800       11.46    
   8.900       12.76    
   9.000       14.14    
   9.100       15.57    
   9.200       17.02    
   9.300       18.47    
   9.400       19.88    
   9.500       21.25    
   9.600       22.53    
   9.700       23.71    
   9.800       24.78    
   9.900       25.72    
   10.00       26.52    
   10.10       27.16    
   10.20       27.65    
   10.30       27.96    
   10.40       28.11    
   10.50       28.10    
   10.60       27.92    
   10.70       27.58    
   10.80       27.09    
   10.90       26.47    
   11.00       25.71    
   11.10       24.83    
   11.20       23.86    
   11.30       22.79    
   11.40       21.65    
   11.50       20.46    
   11.60       19.23    
   11.70       17.97    
   11.80       16.71    
   11.90       15.46    
   12.00       14.23    
   12.10       13.04    
   12.20       11.89    
   12.30       10.81    
   12.40       9.802    
   12.50       8.874    
   12.60       8.034    
   12.70       7.289    
   12.80       6.642    
   12.90       6.097    
   13.00       5.655    
   13.10       5.316    
   13.20       5.077    
   13.30       4.936    
   13.40       4.889    
   13.50       4.930    
   13.60       5.053    
   13.70       5.251    
   13.80       5.515    
   13.90       5.838    
   14.00       6.210    
   14.10       6.621    
   14.20       7.063    
   14.30       7.526    
   14.40       8.000    
   14.50       8.478    
   14.60       8.948    
   14.70       9.405    
   14.80       9.840    
   14.90       10.25    
   15.00       10.62    
   15.10       10.95    
   15.20       11.23    
   15.30       11.46    
   15.40       11.65    
   15.50       11.78    
   15.60       11.85    
   15.70       11.87    
   15.80       11.83    
   15.90       11.74    
   16.00       11.60    
   16.10       11.40    
   16.20       11.17    
   16.30       10.88    
   16.40       10.57    
   16.50       10.21    
   16.60       9.832    
   16.70       9.427    
   16.80       9.003    
   16.90       8.566    
   17.00       8.121    
   17.10       7.672    
   17.20       7.226    
   17.30       6.786    
   17.40       6.357    
   17.50       5.943    
   17.60       5.548    
   17.70       5.175    
   17.80       4.827    
   17.90       4.506    
   18.00       4.215    
   18.10       3.955    
   18.20       3.726    
   18.30       3.530    
   18.40       3.366    
   18.50       3.234    
   18.60       3.134    
   18.70       3.064    
   18.80       3.023    
   18.90       3.009    
   19.00       3.019    
   19.10       3.053    
   19.20       3.106    
   19.30       3.177    
   19.40       3.263    
   19.50       3.360    
   19.60       3.467    
   19.70       3.581    
   19.80       3.697    
   19.90       3.815    
   20.00       3.931    
   20.10       4.044    
   20.20       4.150    
   20.30       4.247    
   20.40       4.335    
   20.50       4.412    
   20.60       4.475    
   20.70       4.524    
   20.80       4.559    
   20.90       4.578    
   21.00       4.581    
   21.10       4.569    
   21.20       4.541    
   21.30       4.497    
   21.40       4.439    
   21.50       4.367    
   21.60       4.281    
   21.70       4.183    
   21.80       4.074    
   21.90       3.956    
   22.00       3.829    
   22.10       3.695    
   22.20       3.555    
   22.30       3.411    
   22.40       3.265    
   22.50       3.118    
   22.60       2.970    
   22.70       2.824    
   22.80       2.681    
   22.90       2.542    
   23.00       2.408    
   23.10       2.280    
   23.20       2.159    
   23.30       2.045    
   23.40       1.940    
   23.50       1.843    
   23.60       1.755    
   23.70       1.676    
   23.80       1.606    
   23.90       1.546    
   24.00       1.495    
   24.10       1.453    
   24.20       1.420    
   24.30       1.394    
   24.40       1.376    
   24.50       1.366    
   24.60       1.361    
   24.70       1.363    
   24.80       1.369    
   24.90       1.380    
   25.00       1.394    
   25.10       1.412    
   25.20       1.431    
   25.30       1.451    
   25.40       1.472    
   25.50       1.493    
   25.60       1.514    
   25.70       1.533    
   25.80       1.550    
   25.90       1.565    
   26.00       1.577    
   26.10       1.586    
   26.20       1.591    
   26.30       1.593    
   26.40       1.591    
   26.50       1.586    
   26.60       1.576    
   26.70       1.562    
   26.80       1.545    
   26.90       1.523    
   27.00       1.498    
   27.10       1.470    
   27.20       1.439    
   27.30       1.405    
   27.40       1.368    
   27.50       1.329    
   27.60       1.288    
   27.70       1.246    
   27.80       1.203    
   27.90       1.159    
   28.00       1.114    
   28.10       1.070    
   28.20       1.026    
   28.30      0.9820    
   28.40      0.9393    
   28.50      0.8979    
   28.60      0.8580    
   28.70      0.8198    
   28.80      0.7835    
   28.90      0.7492    
   29.00      0.7172    
   29.10      0.6875    
   29.20      0.6602    
   29.30      0.6353    
   29.40      0.6129    
   29.50      0.5929    
   29.60      0.5753    
   29.70      0.5601    
   29.80      0.5471    
   29.90      0.5362    
   30.00      0.5274    
   30.10      0.5203    
   30.20      0.5150    
   30.30      0.5113    
   30.40      0.5088    
   30.50      0.5076    
   30.60      0.5073    
   30.70      0.5078    
   30.80      0.5089    
   30.90      0.5105    
   31.00      0.5123    
   31.10      0.5142    
   31.20      0.5160    
   31.30      0.5177    
   31.40      0.5189    
   31.50      0.5197    
   31.60      0.5200    
   31.70      0.5195    
   31.80      0.5184    
   31.90      0.5164    
   32.00      0.5135    
   32.10      0.5098    
   32.20      0.5052    
   32.30      0.4997    
   32.40      0.4933    
   32.50      0.4861    
   32.60      0.4780    
   32.70      0.4691    
   32.80      0.4596    
   32.90      0.4493    
   33.00      0.4385    
   33.10      0.4271    
   33.20      0.4153    
   33.30      0.4032    
   33.40      0.3907    
   33.50      0.3781    
   33.60      0.3654    
   33.70      0.3527    
   33.80      0.3401    
   33.90      0.3276    
   34.00      0.3153    
   34.10      0.3033    
   34.20      0.2917    
   34.30      0.2804    
   34.40      0.2697    
   34.50      0.2594    
   34.60      0.2496    
   34.70      0.2405    
   34.80      0.2319    
   34.90      0.2239    
   35.00      0.2165    
   35.10      0.2098    
   35.20      0.2036    
   35.30      0.1981    
   35.40      0.1931    
   35.50      0.1887    
   35.60      0.1848    
   35.70      0.1814    
   35.80      0.1784    
   35.90      0.1759    
   36.00      0.1738    
   36.10      0.1720    
   36.20      0.1706    
   36.30      0.1693    
   36.40      0.1683    
   36.50      0.1675    
   36.60      0.1668    
   36.70      0.1662    
   36.80      0.1656    
   36.90      0.1650    
   37.00      0.1644    
   37.10      0.1638    
   37.20      0.1631    
   37.30      0.1623    
   37.40      0.1613    
   37.50      0.1602    
   37.60      0.1590    
   37.70      0.1575    
   37.80      0.1559    
   37.90      0.1541    
   38.00      0.1522    
   38.10      0.1500    
   38.20      0.1476    
   38.30      0.1451    
   38.40      0.1424    
   38.50      0.1396    
   38.60      0.1366    
   38.70      0.1335    
   38.80      0.1302    
   38.90      0.1269    
   39.00      0.1235    
   39.10      0.1201    
   39.20      0.1166    
   39.30      0.1131    
   39.40      0.1096    
   39.50      0.1061    
   39.60      0.1026    
   39.70      0.9922E-01
   39.80      0.9588E-01
   39.90      0.9263E-01
   40.00      0.8947E-01
   40.10      0.8642E-01
   40.20      0.8349E-01
   40.30      0.8069E-01
   40.40      0.7802E-01
   40.50      0.7549E-01
   40.60      0.7310E-01
   40.70      0.7086E-01
   40.80      0.6876E-01
   40.90      0.6682E-01
   41.00      0.6501E-01
   41.10      0.6335E-01
   41.20      0.6183E-01
   41.30      0.6044E-01
   41.40      0.5917E-01
   41.50      0.5803E-01
   41.60      0.5699E-01
   41.70      0.5606E-01
   41.80      0.5522E-01
   41.90      0.5446E-01
   42.00      0.5378E-01
   42.10      0.5317E-01
   42.20      0.5261E-01
   42.30      0.5209E-01
   42.40      0.5161E-01
   42.50      0.5116E-01
   42.60      0.5073E-01
   42.70      0.5031E-01
   42.80      0.4989E-01
   42.90      0.4946E-01
   43.00      0.4903E-01
   43.10      0.4858E-01
   43.20      0.4811E-01
   43.30      0.4761E-01
   43.40      0.4708E-01
   43.50      0.4653E-01
   43.60      0.4594E-01
   43.70      0.4531E-01
   43.80      0.4465E-01
   43.90      0.4395E-01
   44.00      0.4322E-01
   44.10      0.4245E-01
   44.20      0.4166E-01
   44.30      0.4083E-01
   44.40      0.3998E-01
   44.50      0.3910E-01
   44.60      0.3820E-01
   44.70      0.3728E-01
   44.80      0.3635E-01
   44.90      0.3541E-01
   45.00      0.3446E-01
   45.10      0.3351E-01
   45.20      0.3257E-01
   45.30      0.3163E-01
   45.40      0.3070E-01
   45.50      0.2978E-01
   45.60      0.2888E-01
   45.70      0.2800E-01
   45.80      0.2714E-01
   45.90      0.2630E-01
   46.00      0.2550E-01
   46.10      0.2472E-01
   46.20      0.2397E-01
   46.30      0.2326E-01
   46.40      0.2258E-01
   46.50      0.2193E-01
   46.60      0.2132E-01
   46.70      0.2074E-01
   46.80      0.2019E-01
   46.90      0.1968E-01
   47.00      0.1921E-01
   47.10      0.1876E-01
   47.20      0.1835E-01
   47.30      0.1796E-01
   47.40      0.1760E-01
   47.50      0.1727E-01
   47.60      0.1696E-01
   47.70      0.1668E-01
   47.80      0.1641E-01
   47.90      0.1616E-01
   48.00      0.1593E-01
   48.10      0.1572E-01
   48.20      0.1551E-01
   48.30      0.1531E-01
   48.40      0.1513E-01
   48.50      0.1494E-01
   48.60      0.1477E-01
   48.70      0.1459E-01
   48.80      0.1442E-01
   48.90      0.1424E-01
   49.00      0.1407E-01
   49.10      0.1389E-01
   49.20      0.1371E-01
   49.30      0.1352E-01
   49.40      0.1333E-01
   49.50      0.1314E-01
   49.60      0.1294E-01
   49.70      0.1273E-01
   49.80      0.1252E-01
   49.90      0.1230E-01
   50.00      0.1207E-01
   50.10      0.1184E-01
   50.20      0.1161E-01
   50.30      0.1137E-01
   50.40      0.1113E-01
   50.50      0.1088E-01
   50.60      0.1063E-01
   50.70      0.1038E-01
   50.80      0.1013E-01
   50.90      0.9875E-02
   51.00      0.9623E-02
   51.10      0.9371E-02
   51.20      0.9122E-02
   51.30      0.8876E-02
   51.40      0.8632E-02
   51.50      0.8393E-02
   51.60      0.8159E-02
   51.70      0.7930E-02
   51.80      0.7707E-02
   51.90      0.7490E-02
   52.00      0.7280E-02
   52.10      0.7077E-02
   52.20      0.6881E-02
   52.30      0.6693E-02
   52.40      0.6513E-02
   52.50      0.6341E-02
   52.60      0.6176E-02
   52.70      0.6020E-02
   52.80      0.5871E-02
   52.90      0.5730E-02
   53.00      0.5597E-02
   53.10      0.5471E-02
   53.20      0.5352E-02
   53.30      0.5239E-02
   53.40      0.5133E-02
   53.50      0.5033E-02
   53.60      0.4938E-02
   53.70      0.4849E-02
   53.80      0.4764E-02
   53.90      0.4684E-02
   54.00      0.4608E-02
   54.10      0.4535E-02
   54.20      0.4465E-02
   54.30      0.4397E-02
   54.40      0.4332E-02
   54.50      0.4269E-02
   54.60      0.4208E-02
   54.70      0.4147E-02
   54.80      0.4087E-02
   54.90      0.4028E-02
   55.00      0.3969E-02
   55.10      0.3911E-02
   55.20      0.3852E-02
   55.30      0.3792E-02
   55.40      0.3732E-02
   55.50      0.3672E-02
   55.60      0.3611E-02
   55.70      0.3549E-02
   55.80      0.3487E-02
   55.90      0.3424E-02
   56.00      0.3360E-02
   56.10      0.3295E-02
   56.20      0.3230E-02
   56.30      0.3164E-02
   56.40      0.3098E-02
   56.50      0.3031E-02
   56.60      0.2964E-02
   56.70      0.2897E-02
   56.80      0.2831E-02
   56.90      0.2764E-02
   57.00      0.2698E-02
   57.10      0.2632E-02
   57.20      0.2566E-02
   57.30      0.2502E-02
   57.40      0.2438E-02
   57.50      0.2376E-02
   57.60      0.2314E-02
   57.70      0.2254E-02
   57.80      0.2195E-02
   57.90      0.2138E-02
   58.00      0.2082E-02
   58.10      0.2028E-02
   58.20      0.1976E-02
   58.30      0.1925E-02
   58.40      0.1876E-02
   58.50      0.1829E-02
   58.60      0.1783E-02
   58.70      0.1740E-02
   58.80      0.1698E-02
   58.90      0.1658E-02
   59.00      0.1620E-02
   59.10      0.1583E-02
   59.20      0.1548E-02
   59.30      0.1515E-02
   59.40      0.1483E-02
   59.50      0.1453E-02
   59.60      0.1424E-02
   59.70      0.1396E-02
   59.80      0.1370E-02
   59.90      0.1344E-02
   60.00      0.1320E-02
   60.10      0.1296E-02
   60.20      0.1274E-02
   60.30      0.1252E-02
   60.40      0.1231E-02
   60.50      0.1211E-02
   60.60      0.1191E-02
   60.70      0.1172E-02
   60.80      0.1153E-02
   60.90      0.1134E-02
   61.00      0.1116E-02
   61.10      0.1097E-02
   61.20      0.1079E-02
   61.30      0.1062E-02
   61.40      0.1044E-02
   61.50      0.1026E-02
   61.60      0.1008E-02
   61.70      0.9908E-03
   61.80      0.9731E-03
   61.90      0.9554E-03
   62.00      0.9377E-03
   62.10      0.9199E-03
   62.20      0.9022E-03
   62.30      0.8844E-03
   62.40      0.8666E-03
   62.50      0.8488E-03
   62.60      0.8311E-03
   62.70      0.8134E-03
   62.80      0.7958E-03
   62.90      0.7782E-03
   63.00      0.7608E-03
   63.10      0.7435E-03
   63.20      0.7264E-03
   63.30      0.7094E-03
   63.40      0.6927E-03
   63.50      0.6762E-03
   63.60      0.6599E-03
   63.70      0.6440E-03
   63.80      0.6283E-03
   63.90      0.6130E-03
   64.00      0.5980E-03
   64.10      0.5833E-03
   64.20      0.5691E-03
   64.30      0.5552E-03
   64.40      0.5417E-03
   64.50      0.5286E-03
   64.60      0.5158E-03
   64.70      0.5036E-03
   64.80      0.4917E-03
   64.90      0.4802E-03
   65.00      0.4691E-03
   65.10      0.4584E-03
   65.20      0.4481E-03
   65.30      0.4382E-03
   65.40      0.4287E-03
   65.50      0.4195E-03
   65.60      0.4106E-03
   65.70      0.4021E-03
   65.80      0.3940E-03
   65.90      0.3861E-03
   66.00      0.3785E-03
   66.10      0.3712E-03
   66.20      0.3641E-03
   66.30      0.3573E-03
   66.40      0.3507E-03
   66.50      0.3443E-03
   66.60      0.3380E-03
   66.70      0.3320E-03
   66.80      0.3261E-03
   66.90      0.3204E-03
   67.00      0.3148E-03
   67.10      0.3093E-03
   67.20      0.3039E-03
   67.30      0.2985E-03
   67.40      0.2933E-03
   67.50      0.2882E-03
   67.60      0.2831E-03
   67.70      0.2780E-03
   67.80      0.2730E-03
   67.90      0.2681E-03
   68.00      0.2632E-03
   68.10      0.2583E-03
   68.20      0.2534E-03
   68.30      0.2486E-03
   68.40      0.2438E-03
   68.50      0.2391E-03
   68.60      0.2344E-03
   68.70      0.2297E-03
   68.80      0.2250E-03
   68.90      0.2204E-03
   69.00      0.2158E-03
   69.10      0.2112E-03
   69.20      0.2067E-03
   69.30      0.2022E-03
   69.40      0.1978E-03
   69.50      0.1934E-03
   69.60      0.1891E-03
   69.70      0.1849E-03
   69.80      0.1807E-03
   69.90      0.1766E-03
   70.00      0.1725E-03
   70.10      0.1686E-03
   70.20      0.1647E-03
   70.30      0.1609E-03
   70.40      0.1571E-03
   70.50      0.1535E-03
   70.60      0.1499E-03
   70.70      0.1465E-03
   70.80      0.1431E-03
   70.90      0.1398E-03
   71.00      0.1366E-03
   71.10      0.1335E-03
   71.20      0.1305E-03
   71.30      0.1276E-03
   71.40      0.1247E-03
   71.50      0.1220E-03
   71.60      0.1193E-03
   71.70      0.1168E-03
   71.80      0.1143E-03
   71.90      0.1118E-03
   72.00      0.1095E-03
   72.10      0.1072E-03
   72.20      0.1051E-03
   72.30      0.1029E-03
   72.40      0.1009E-03
   72.50      0.9889E-04
   72.60      0.9696E-04
   72.70      0.9508E-04
   72.80      0.9326E-04
   72.90      0.9149E-04
   73.00      0.8977E-04
   73.10      0.8809E-04
   73.20      0.8645E-04
   73.30      0.8485E-04
   73.40      0.8329E-04
   73.50      0.8177E-04
   73.60      0.8027E-04
   73.70      0.7880E-04
   73.80      0.7736E-04
   73.90      0.7594E-04
   74.00      0.7455E-04
   74.10      0.7318E-04
   74.20      0.7182E-04
   74.30      0.7049E-04
   74.40      0.6917E-04
   74.50      0.6787E-04
   74.60      0.6658E-04
   74.70      0.6531E-04
   74.80      0.6406E-04
   74.90      0.6281E-04
   75.00      0.6158E-04
   75.10      0.6037E-04
   75.20      0.5916E-04
   75.30      0.5797E-04
   75.40      0.5680E-04
   75.50      0.5564E-04
   75.60      0.5449E-04
   75.70      0.5335E-04
   75.80      0.5223E-04
   75.90      0.5113E-04
   76.00      0.5004E-04
   76.10      0.4896E-04
   76.20      0.4790E-04
   76.30      0.4686E-04
   76.40      0.4584E-04
   76.50      0.4483E-04
   76.60      0.4384E-04
   76.70      0.4287E-04
   76.80      0.4192E-04
   76.90      0.4099E-04
   77.00      0.4008E-04
   77.10      0.3919E-04
   77.20      0.3831E-04
   77.30      0.3746E-04
   77.40      0.3663E-04
   77.50      0.3582E-04
   77.60      0.3502E-04
   77.70      0.3425E-04
   77.80      0.3350E-04
   77.90      0.3277E-04
   78.00      0.3206E-04
   78.10      0.3136E-04
   78.20      0.3069E-04
   78.30      0.3003E-04
   78.40      0.2940E-04
   78.50      0.2878E-04
   78.60      0.2818E-04
   78.70      0.2759E-04
   78.80      0.2703E-04
   78.90      0.2648E-04
   79.00      0.2594E-04
   79.10      0.2542E-04
   79.20      0.2491E-04
   79.30      0.2442E-04
   79.40      0.2394E-04
   79.50      0.2348E-04
